Time,Press,Temp,Dewpt,RH,Ucmp,Vcmp,spd,dir,Wcm, Lon,Lat,Ele,Azi,Alt, Qp,Qt,Qr, Qu,Qv,Qd
   0.0,  954.4,  22.8,  14.9,  61.0,   -3.9,   -3.3,   5.1,  50.0, 999.0,  -64.212, -31.298, 999.0, 999.0,   490.0,  1.0,  1.0,  1.0,  1.0,  1.0,  9.0
   7.3,  950.0,  22.2,  13.3,  57.1,   -6.8,   -7.5,  10.2,  42.1,   6.5,  -64.212, -31.298, 999.0, 999.0,   529.4,  1.0,  1.0,  1.0,  1.0,  1.0, 99.0
  16.9,  945.0,  22.0,  13.3,  57.9,   -6.9,   -7.2,  10.0,  43.8,   4.0,  -64.213, -31.299, 999.0, 999.0,   574.6,  1.0,  1.0,  1.0,  1.0,  1.0, 99.0
  28.2,  940.0,  21.7,  12.5,  56.0,   -7.0,   -7.5,  10.3,  43.0,   4.0,  -64.214, -31.300, 999.0, 999.0,   620.6,  1.0,  1.0,  1.0,  1.0,  1.0, 99.0
  39.3,  935.0,  21.4,  12.5,  56.7,   -7.3,   -7.8,  10.7,  43.0,   4.0,  -64.215, -31.300, 999.0, 999.0,   667.3,  1.0,  1.0,  1.0,  1.0,  1.0, 99.0
  49.3,  930.0,  20.9,  12.3,  57.9,   -7.1,   -7.9,  10.7,  42.0,   5.5,  -64.214, -31.301, 999.0, 999.0,   714.3,  1.0,  1.0,  1.0,  1.0,  1.0, 99.0
  58.0,  925.0,  20.5,  12.3,  59.4,   -7.1,   -7.8,  10.5,  42.5,   5.8,  -64.216, -31.302, 999.0, 999.0,   760.5,  1.0,  1.0,  1.0,  1.0,  1.0, 99.0
  66.7,  920.0,  20.2,  12.2,  60.2,   -6.8,   -7.6,  10.2,  42.0,   5.5,  -64.217, -31.302, 999.0, 999.0,   807.0,  1.0,  1.0,  1.0,  1.0,  1.0, 99.0
  75.5,  915.0,  19.7,  12.2,  61.8,   -6.1,   -7.5,   9.7,  39.0,   5.5,  -64.217, -31.303, 999.0, 999.0,   854.3,  1.0,  1.0,  1.0,  1.0,  1.0, 99.0
  83.8,  910.0,  19.3,  12.1,  62.9,   -5.5,   -7.3,   9.1,  37.1,   6.0,  -64.218, -31.304, 999.0, 999.0,   902.0,  1.0,  1.0,  1.0,  1.0,  1.0, 99.0
  91.7,  905.0,  19.0,  12.0,  63.8,   -4.7,   -6.8,   8.3,  34.2,   5.5,  -64.218, -31.304, 999.0, 999.0,   949.2,  1.0,  1.0,  1.0,  1.0,  1.0, 99.0
 100.2,  900.0,  18.7,  11.9,  64.5,   -4.1,   -6.3,   7.5,  33.0,   5.5,  -64.219, -31.305, 999.0, 999.0,   996.0,  1.0,  1.0,  1.0,  1.0,  1.0, 99.0
 109.2,  895.0,  18.5,  11.8,  64.8,   -3.8,   -5.7,   6.9,  34.1,   5.5,  -64.219, -31.305, 999.0, 999.0,  1044.4,  1.0,  1.0,  1.0,  1.0,  1.0, 99.0
 118.5,  890.0,  18.2,  11.6,  65.1,   -3.4,   -5.3,   6.3,  32.8,   5.0,  -64.219, -31.305, 999.0, 999.0,  1092.7,  1.0,  1.0,  1.0,  1.0,  1.0, 99.0
 127.8,  885.0,  18.1,  11.4,  64.7,   -3.2,   -5.1,   6.0,  32.1,   5.5,  -64.220, -31.306, 999.0, 999.0,  1140.1,  1.0,  1.0,  1.0,  1.0,  1.0, 99.0
 136.8,  880.0,  17.8,  11.1,  65.0,   -2.6,   -5.1,   5.7,  26.7,   4.5,  -64.220, -31.306, 999.0, 999.0,  1189.6,  1.0,  1.0,  1.0,  1.0,  1.0, 99.0
 146.4,  875.0,  17.3,  10.6,  64.5,   -2.0,   -5.5,   5.9,  20.0,   5.0,  -64.220, -31.307, 999.0, 999.0,  1238.8,  1.0,  1.0,  1.0,  1.0,  1.0, 99.0
 155.8,  870.0,  17.1,  10.4,  64.7,   -2.1,   -5.5,   5.9,  20.9,   5.0,  -64.220, -31.307, 999.0, 999.0,  1287.0,  1.0,  1.0,  1.0,  1.0,  1.0, 99.0
 166.4,  865.0,  16.6,  10.4,  66.9,   -2.2,   -5.8,   6.2,  21.1,   5.0,  -64.221, -31.308, 999.0, 999.0,  1336.0,  1.0,  1.0,  1.0,  1.0,  1.0, 99.0
 177.7,  860.0,  16.1,  10.6,  69.7,   -2.3,   -5.7,   6.2,  22.1,   4.0,  -64.221, -31.308, 999.0, 999.0,  1386.0,  1.0,  1.0,  1.0,  1.0,  1.0, 99.0
 187.5,  855.0,  15.7,  10.9,  73.1,   -1.4,   -6.0,   6.2,  12.7,   5.5,  -64.221, -31.309, 999.0, 999.0,  1435.0,  1.0,  1.0,  1.0,  1.0,  1.0, 99.0
 197.3,  850.0,  15.3,  10.7,  74.0,   -0.7,   -6.0,   6.0,   6.7,   5.1,  -64.221, -31.309, 999.0, 999.0,  1485.0,  1.0,  2.0,  2.0,  1.0,  1.0, 99.0
 208.2,  845.0,  15.0,  10.7,  75.6,   -0.2,   -6.0,   6.0,   1.9,   4.0,  -64.221, -31.310, 999.0, 999.0,  1535.9,  1.0,  1.0,  1.0,  1.0,  1.0, 99.0
 218.2,  840.0,  14.6,  10.5,  76.2,   -0.1,   -6.5,   6.5,   0.8,   4.5,  -64.221, -31.310, 999.0, 999.0,  1585.9,  1.0,  1.0,  1.0,  1.0,  1.0, 99.0
 228.2,  835.0,  14.4,  10.3,  76.5,    0.0,   -6.6,   6.6,   0.0,   5.0,  -64.221, -31.311, 999.0, 999.0,  1636.0,  1.0,  1.0,  1.0,  1.0,  1.0, 99.0
 239.2,  830.0,  13.9,  10.2,  78.3,    0.1,   -6.4,   6.4, 359.5,   5.0,  -64.221, -31.312, 999.0, 999.0,  1687.0,  1.0,  1.0,  1.0,  1.0,  1.0, 99.0
 249.3,  825.0,  13.5,   9.9,  78.7,    0.5,   -6.4,   6.4, 355.2,   4.5,  -64.221, -31.312, 999.0, 999.0,  1738.0,  1.0,  1.0,  1.0,  1.0,  1.0, 99.0
 259.8,  820.0,  13.3,   9.4,  77.5,    1.2,   -6.6,   6.7, 349.8,   6.0,  -64.221, -31.313, 999.0, 999.0,  1789.9,  1.0,  1.0,  1.0,  1.0,  1.0, 99.0
 271.3,  815.0,  13.0,   8.8,  75.5,    1.6,   -6.2,   6.4, 345.9,   4.5,  -64.221, -31.314, 999.0, 999.0,  1841.0,  1.0,  1.0,  1.0,  1.0,  1.0, 99.0
 281.6,  810.0,  13.1,   8.2,  72.2,    0.9,   -4.5,   4.6, 348.4,   5.5,  -64.221, -31.314, 999.0, 999.0,  1892.8,  1.0,  1.0,  1.0,  1.0,  1.0, 99.0
 291.2,  805.0,  13.3,   7.9,  69.6,    0.2,   -2.7,   2.7, 355.4,   5.0,  -64.221, -31.315, 999.0, 999.0,  1945.0,  1.0,  1.0,  1.0,  1.0,  1.0, 99.0
 301.3,  800.0,  13.4,   7.7,  68.4,   -0.4,   -1.4,   1.5,  15.9,   4.5,  -64.221, -31.315, 999.0, 999.0,  1997.0,  1.0,  1.0,  1.0,  1.0,  1.0, 99.0
 311.8,  795.0,  13.2,   7.5,  68.3,   -0.2,   -0.9,   0.9,  12.5,   5.0,  -64.221, -31.315, 999.0, 999.0,  2050.0,  1.0,  1.0,  1.0,  1.0,  1.0, 99.0
 323.1,  790.0,  12.7,   7.1,  68.3,    0.4,   -0.6,   0.7, 329.4,   5.5,  -64.221, -31.315, 999.0, 999.0,  2103.0,  1.0,  1.0,  1.0,  1.0,  1.0, 99.0
 334.0,  785.0,  12.2,   6.9,  69.9,    1.3,   -0.6,   1.4, 294.8,   5.0,  -64.221, -31.315, 999.0, 999.0,  2157.0,  1.0,  1.0,  1.0,  1.0,  1.0, 99.0
 343.8,  780.0,  11.8,   6.8,  71.2,    1.9,   -0.5,   2.0, 285.1,   5.5,  -64.221, -31.315, 999.0, 999.0,  2209.9,  1.0,  1.0,  1.0,  1.0,  1.0, 99.0
 354.4,  775.0,  11.3,   6.6,  72.6,    2.5,   -0.2,   2.5, 274.1,   5.0,  -64.220, -31.315, 999.0, 999.0,  2264.0,  1.0,  1.0,  1.0,  1.0,  1.0, 99.0
 364.4,  770.0,  11.0,   6.4,  73.4,    2.6,    0.6,   2.7, 258.0,   5.7,  -64.220, -31.315, 999.0, 999.0,  2318.1,  1.0,  1.0,  1.0,  1.0,  1.0, 99.0
 374.2,  765.0,  10.5,   6.1,  74.1,    2.6,    1.7,   3.1, 236.3,   5.5,  -64.220, -31.315, 999.0, 999.0,  2372.1,  1.0,  1.0,  1.0,  1.0,  1.0, 99.0
 383.5,  760.0,  10.2,   5.7,  73.7,    2.0,    2.3,   3.1, 221.4,   5.5,  -64.219, -31.315, 999.0, 999.0,  2427.0,  1.0,  1.0,  1.0,  1.0,  1.0, 99.0
 392.5,  755.0,   9.9,   5.3,  73.2,    1.9,    2.7,   3.3, 215.1,   6.0,  -64.219, -31.314, 999.0, 999.0,  2482.3,  1.0,  1.0,  1.0,  1.0,  1.0, 99.0
 402.2,  750.0,   9.5,   4.8,  72.8,    2.0,    2.5,   3.2, 218.6,   4.5,  -64.219, -31.314, 999.0, 999.0,  2538.0,  1.0,  1.0,  1.0,  1.0,  1.0, 99.0
 412.9,  745.0,   9.0,   4.4,  73.4,    2.2,    2.3,   3.2, 223.8,   5.0,  -64.219, -31.314, 999.0, 999.0,  2593.4,  1.0,  1.0,  1.0,  1.0,  1.0, 99.0
 423.0,  740.0,   8.5,   4.1,  74.2,    2.5,    2.2,   3.3, 228.7,   5.5,  -64.219, -31.314, 999.0, 999.0,  2648.5,  1.0,  1.0,  1.0,  1.0,  1.0, 99.0
 432.7,  735.0,   7.9,   4.0,  76.6,    2.1,    2.3,   3.1, 222.4,   6.0,  -64.218, -31.314, 999.0, 999.0,  2704.4,  1.0,  1.0,  1.0,  1.0,  1.0, 99.0
 441.7,  730.0,   7.4,   3.7,  77.5,    2.1,    2.3,   3.1, 222.2,   6.5,  -64.218, -31.313, 999.0, 999.0,  2760.8,  1.0,  1.0,  1.0,  1.0,  1.0, 99.0
 452.3,  725.0,   6.8,   3.8,  81.2,    1.9,    2.3,   3.0, 219.6,   5.2,  -64.218, -31.313, 999.0, 999.0,  2817.1,  1.0,  1.0,  1.0,  1.0,  1.0, 99.0
 462.0,  720.0,   6.2,   3.7,  84.3,    2.1,    1.8,   2.8, 229.4,   5.5,  -64.218, -31.313, 999.0, 999.0,  2875.0,  1.0,  1.0,  1.0,  1.0,  1.0, 99.0
 472.2,  715.0,   5.7,   3.6,  86.5,    2.4,    1.8,   3.0, 232.8,   5.5,  -64.217, -31.313, 999.0, 999.0,  2931.2,  1.0,  1.0,  1.0,  1.0,  1.0, 99.0
 482.2,  710.0,   5.2,   3.5,  89.1,    2.5,    2.3,   3.4, 227.3,   5.9,  -64.217, -31.313, 999.0, 999.0,  2989.2,  1.0,  1.0,  1.0,  1.0,  1.0, 99.0
 492.0,  705.0,   4.6,   3.2,  90.4,    2.5,    3.5,   4.3, 215.5,   6.0,  -64.217, -31.313, 999.0, 999.0,  3047.0,  1.0,  1.0,  1.0,  1.0,  1.0, 99.0
 503.6,  700.0,   4.1,   3.0,  92.8,    2.1,    3.7,   4.3, 209.8,   5.5,  -64.217, -31.312, 999.0, 999.0,  3104.8,  1.0,  1.0,  1.0,  1.0,  1.0, 99.0
 514.0,  695.0,   3.5,   2.8,  95.2,    1.7,    4.1,   4.4, 202.5,   5.5,  -64.216, -31.312, 999.0, 999.0,  3163.0,  1.0,  1.0,  1.0,  1.0,  1.0, 99.0
 524.4,  690.0,   3.0,   2.5,  96.7,    2.5,    3.6,   4.4, 215.2,   5.5,  -64.216, -31.312, 999.0, 999.0,  3221.4,  1.0,  1.0,  1.0,  1.0,  1.0, 99.0
 534.0,  685.0,   2.8,   1.9,  93.7,    3.9,    3.1,   5.0, 231.5,   6.0,  -64.216, -31.311, 999.0, 999.0,  3281.0,  1.0,  1.0,  1.0,  1.0,  1.0, 99.0
 544.5,  680.0,   2.8,   1.3,  89.8,    5.2,    1.0,   5.2, 259.4,   6.5,  -64.215, -31.311, 999.0, 999.0,  3340.5,  1.0,  1.0,  1.0,  1.0,  1.0, 99.0
 553.3,  675.0,   4.7,  -2.1,  61.4,    5.0,   -0.5,   5.0, 276.1,   5.5,  -64.215, -31.311, 999.0, 999.0,  3400.3,  1.0,  1.0,  1.0,  1.0,  1.0, 99.0
 564.7,  670.0,   4.5,  -4.0,  54.1,    4.4,   -1.3,   4.5, 286.2,   6.5,  -64.214, -31.311, 999.0, 999.0,  3460.7,  1.0,  1.0,  1.0,  1.0,  1.0, 99.0
 575.0,  665.0,   4.2,  -5.6,  49.0,    3.6,   -0.3,   3.6, 274.8,   6.0,  -64.214, -31.311, 999.0, 999.0,  3522.0,  1.0,  1.0,  1.0,  1.0,  1.0, 99.0
 585.3,  660.0,   3.9,  -8.7,  39.1,    4.3,   -0.2,   4.3, 272.2,   5.5,  -64.213, -31.311, 999.0, 999.0,  3582.3,  1.0,  1.0,  1.0,  1.0,  1.0, 99.0
 596.2,  655.0,   3.4, -10.5,  35.4,    4.8,    0.2,   4.8, 267.6,   5.7,  -64.213, -31.311, 999.0, 999.0,  3645.2,  1.0,  1.0,  1.0,  1.0,  1.0, 99.0
 606.9,  650.0,   2.9, -10.8,  35.8,    5.6,   -0.2,   5.6, 272.0,   6.5,  -64.212, -31.311, 999.0, 999.0,  3706.8,  1.0,  1.0,  1.0,  1.0,  1.0, 99.0
 617.8,  645.0,   2.3, -10.8,  37.3,    6.0,    0.6,   6.0, 264.4,   5.7,  -64.212, -31.311, 999.0, 999.0,  3768.7,  1.0,  1.0,  1.0,  1.0,  1.0, 99.0
 629.5,  640.0,   1.7, -10.8,  38.9,    6.4,    0.1,   6.4, 269.1,   5.5,  -64.211, -31.311, 999.0, 999.0,  3832.2,  1.0,  1.0,  1.0,  1.0,  1.0, 99.0
 641.1,  635.0,   1.0, -10.3,  42.4,    6.3,    0.2,   6.3, 267.8,   6.0,  -64.210, -31.311, 999.0, 999.0,  3895.7,  1.0,  1.0,  1.0,  1.0,  1.0, 99.0
 652.2,  630.0,   0.6,  -9.4,  47.2,    6.0,   -0.1,   6.0, 271.0,   6.0,  -64.210, -31.311, 999.0, 999.0,  3959.2,  1.0,  1.0,  1.0,  1.0,  1.0, 99.0
 664.0,  625.0,   0.0,  -9.2,  49.9,    5.9,    0.0,   5.9, 270.0,   6.0,  -64.209, -31.311, 999.0, 999.0,  4022.0,  1.0,  1.0,  1.0,  1.0,  1.0, 99.0
 675.8,  620.0,  -0.5, -10.7,  46.2,    6.6,   -0.8,   6.6, 276.7,   5.0,  -64.208, -31.311, 999.0, 999.0,  4086.8,  1.0,  1.0,  1.0,  1.0,  1.0, 99.0
 688.5,  615.0,  -1.0, -10.5,  48.7,    6.5,   -1.3,   6.7, 281.3,   5.0,  -64.207, -31.311, 999.0, 999.0,  4151.5,  1.0,  1.0,  1.0,  1.0,  1.0, 99.0
 700.0,  610.0,  -1.6, -11.2,  48.0,    6.8,   -1.6,   7.0, 283.2,   5.0,  -64.206, -31.311, 999.0, 999.0,  4217.0,  1.0,  1.0,  1.0,  1.0,  1.0, 99.0
 712.0,  605.0,  -2.1, -14.2,  39.0,    6.9,   -0.9,   7.0, 277.4,   5.0,  -64.206, -31.312, 999.0, 999.0,  4283.0,  1.0,  1.0,  1.0,  1.0,  1.0, 99.0
 724.0,  600.0,  -2.3, -18.4,  28.0,    7.3,    0.3,   7.3, 267.6,   5.5,  -64.205, -31.312, 999.0, 999.0,  4348.0,  1.0,  1.0,  1.0,  1.0,  1.0, 99.0
 735.1,  595.0,  -2.9, -19.6,  26.5,    7.5,    1.0,   7.6, 262.4,   5.8,  -64.204, -31.312, 999.0, 999.0,  4413.7,  1.0,  1.0,  1.0,  1.0,  1.0, 99.0
 746.2,  590.0,  -3.6, -19.8,  27.1,    7.6,    1.2,   7.7, 261.1,   5.8,  -64.203, -31.311, 999.0, 999.0,  4480.2,  1.0,  1.0,  1.0,  1.0,  1.0, 99.0
 758.0,  585.0,  -4.3, -19.9,  28.4,    7.4,    1.0,   7.5, 262.3,   6.0,  -64.202, -31.311, 999.0, 999.0,  4548.0,  2.0,  2.0,  2.0,  1.0,  1.0, 99.0
 769.8,  580.0,  -4.8, -19.2,  31.4,    8.0,    1.4,   8.1, 260.0,   6.5,  -64.201, -31.311, 999.0, 999.0,  4615.7,  2.0,  1.0,  1.0,  1.0,  1.0, 99.0
 782.7,  575.0,  -5.4, -19.2,  32.8,    7.9,    1.3,   8.0, 260.7,   5.5,  -64.200, -31.311, 999.0, 999.0,  4683.7,  1.0,  1.0,  1.0,  1.0,  1.0, 99.0
 795.7,  570.0,  -5.4, -24.5,  20.6,    7.9,    0.1,   7.9, 269.1,   5.0,  -64.199, -31.311, 999.0, 999.0,  4752.6,  1.0,  1.0,  1.0,  1.0,  1.0, 99.0
 808.3,  565.0,  -5.7, -25.5,  19.3,    8.5,   -0.7,   8.5, 274.9,   4.5,  -64.198, -31.311, 999.0, 999.0,  4821.3,  1.0,  1.0,  1.0,  1.0,  1.0, 99.0
 820.9,  560.0,  -6.2, -27.7,  16.5,    8.6,   -2.7,   9.0, 287.4,   6.0,  -64.197, -31.311, 999.0, 999.0,  4890.3,  1.0,  1.0,  1.0,  1.0,  1.0, 99.0
 833.3,  555.0,  -6.6, -27.3,  17.6,    8.2,   -3.0,   8.8, 290.0,   5.5,  -64.195, -31.312, 999.0, 999.0,  4960.9,  1.0,  1.0,  1.0,  1.0,  1.0, 99.0
 845.0,  550.0,  -7.3, -28.0,  17.4,    7.9,   -3.1,   8.5, 291.4,   5.5,  -64.195, -31.312, 999.0, 999.0,  5031.5,  1.0,  1.0,  1.0,  1.0,  1.0, 99.0
 856.0,  545.0,  -7.9, -28.0,  18.2,    8.2,   -3.3,   8.8, 291.9,   5.5,  -64.194, -31.312, 999.0, 999.0,  5102.0,  1.0,  1.0,  1.0,  1.0,  1.0, 99.0
 869.8,  540.0,  -8.5, -29.0,  17.3,    8.3,   -2.9,   8.8, 289.2,   7.5,  -64.192, -31.313, 999.0, 999.0,  5173.5,  1.0,  1.0,  1.0,  1.0,  1.0, 99.0
 881.1,  535.0,  -9.0, -30.2,  16.1,    9.8,   -1.9,   9.9, 280.9,   5.0,  -64.191, -31.313, 999.0, 999.0,  5245.7,  1.0,  1.0,  1.0,  1.0,  1.0, 99.0
 893.8,  530.0,  -9.4, -31.2,  15.1,   10.4,   -1.1,  10.4, 276.0,   6.0,  -64.190, -31.313, 999.0, 999.0,  5318.5,  1.0,  1.0,  1.0,  1.0,  1.0, 99.0
 907.0,  525.0,  -9.8, -32.9,  13.3,   11.9,   -0.6,  11.9, 272.9,   4.5,  -64.188, -31.313, 999.0, 999.0,  5391.5,  1.0,  1.0,  1.0,  1.0,  1.0, 99.0
 919.8,  520.0, -10.3, -33.1,  13.5,   12.9,   -0.9,  12.9, 274.0,   6.5,  -64.187, -31.313, 999.0, 999.0,  5465.5,  1.0,  1.0,  1.0,  1.0,  1.0, 99.0
 934.0,  515.0, -10.6, -32.6,  14.5,   14.3,   -1.3,  14.4, 275.2,   6.5,  -64.185, -31.313, 999.0, 999.0,  5539.0,  1.0,  1.0,  1.0,  1.0,  1.0, 99.0
 947.4,  510.0, -11.1, -33.7,  13.6,   14.2,   -0.2,  14.2, 270.8,   7.0,  -64.183, -31.314, 999.0, 999.0,  5614.8,  1.0,  1.0,  1.0,  1.0,  1.0, 99.0
 960.2,  505.0, -11.5, -26.7,  27.2,   14.7,   -0.3,  14.7, 271.3,   6.5,  -64.181, -31.313, 999.0, 999.0,  5690.4,  1.0,  1.0,  1.0,  1.0,  1.0, 99.0
 972.1,  500.0, -12.1, -25.8,  31.1,   15.1,   -0.8,  15.1, 273.1,   6.3,  -64.178, -31.314, 999.0, 999.0,  5766.2,  1.0,  1.0,  1.0,  1.0,  1.0, 99.0
 986.6,  495.0, -12.7, -24.6,  36.4,   16.3,   -2.1,  16.4, 277.3,   5.5,  -64.176, -31.314, 999.0, 999.0,  5842.1,  1.0,  1.0,  1.0,  1.0,  1.0, 99.0
 999.3,  490.0, -13.3, -25.0,  36.7,   16.8,   -3.2,  17.1, 280.8,   4.5,  -64.174, -31.314, 999.0, 999.0,  5920.0,  1.0,  1.0,  1.0,  1.0,  1.0, 99.0
1014.5,  485.0, -13.7, -27.5,  30.2,   17.6,   -3.7,  18.0, 281.9,   6.2,  -64.172, -31.315, 999.0, 999.0,  5998.8,  1.0,  1.0,  1.0,  1.0,  1.0, 99.0
1028.7,  480.0, -14.2, -29.2,  27.1,   17.5,   -3.5,  17.9, 281.3,   5.0,  -64.169, -31.315, 999.0, 999.0,  6076.3,  1.0,  1.0,  1.0,  1.0,  1.0, 99.0
1042.9,  475.0, -14.9, -27.5,  33.5,   16.0,   -3.0,  16.3, 280.6,   5.5,  -64.166, -31.315, 999.0, 999.0,  6155.7,  1.0,  1.0,  1.0,  1.0,  1.0, 99.0
1056.9,  470.0, -15.6, -25.9,  40.9,   15.5,   -1.9,  15.6, 277.0,   5.9,  -64.164, -31.316, 999.0, 999.0,  6236.4,  1.0,  1.0,  1.0,  1.0,  1.0, 99.0
1072.3,  465.0, -16.1, -25.2,  45.7,   15.5,   -1.0,  15.5, 273.9,   5.0,  -64.161, -31.316, 999.0, 999.0,  6316.7,  1.0,  1.0,  1.0,  1.0,  1.0, 99.0
1087.4,  460.0, -16.6, -26.0,  44.0,   14.1,    0.6,  14.1, 267.4,   6.0,  -64.159, -31.316, 999.0, 999.0,  6398.6,  1.0,  1.0,  1.0,  1.0,  1.0, 99.0
1102.9,  455.0, -17.2, -26.8,  43.1,   12.3,    2.2,  12.5, 259.9,   5.7,  -64.157, -31.316, 999.0, 999.0,  6479.5,  1.0,  1.0,  1.0,  1.0,  1.0, 99.0
1119.0,  450.0, -18.0, -28.1,  40.8,   12.5,    2.8,  12.8, 257.4,   3.5,  -64.155, -31.315, 999.0, 999.0,  6561.5,  1.0,  1.0,  1.0,  1.0,  1.0, 99.0
1135.2,  445.0, -18.5, -33.2,  26.2,   12.9,    2.7,  13.2, 258.0,   4.0,  -64.152, -31.315, 999.0, 999.0,  6645.8,  1.0,  1.0,  1.0,  1.0,  1.0, 99.0
1151.6,  440.0, -19.3, -30.2,  37.3,   13.4,    2.6,  13.6, 259.0,   4.5,  -64.150, -31.314, 999.0, 999.0,  6730.2,  1.0,  1.0,  1.0,  1.0,  1.0, 99.0
1168.7,  435.0, -19.5, -29.4,  41.2,   14.7,    2.8,  14.9, 259.1,   4.5,  -64.148, -31.314, 999.0, 999.0,  6815.0,  1.0,  1.0,  1.0,  1.0,  1.0, 99.0
1186.3,  430.0, -20.3, -29.9,  42.0,   14.4,    3.4,  14.8, 256.9,   4.5,  -64.145, -31.314, 999.0, 999.0,  6900.5,  1.0,  1.0,  1.0,  1.0,  1.0, 99.0
1205.7,  425.0, -20.7, -31.7,  36.8,   12.9,    3.9,  13.5, 253.3,   5.0,  -64.142, -31.313, 999.0, 999.0,  6986.3,  1.0,  1.0,  1.0,  1.0,  1.0, 99.0
1222.5,  420.0, -21.3, -32.8,  34.6,   13.3,    4.3,  14.0, 252.0,   3.5,  -64.140, -31.312, 999.0, 999.0,  7074.8,  1.0,  1.0,  1.0,  1.0,  1.0, 99.0
1241.0,  415.0, -21.5, -35.1,  28.3,   13.5,    4.9,  14.4, 250.1,   5.3,  -64.137, -31.311, 999.0, 999.0,  7162.3,  1.0,  1.0,  1.0,  1.0,  1.0, 99.0
1257.2,  410.0, -22.0, -34.9,  30.0,   14.2,    4.3,  14.8, 253.1,   5.0,  -64.135, -31.311, 999.0, 999.0,  7252.0,  1.0,  1.0,  1.0,  1.0,  1.0, 99.0
1276.4,  405.0, -22.7, -34.8,  32.4,   15.9,    4.0,  16.4, 255.9,   5.5,  -64.132, -31.310, 999.0, 999.0,  7341.2,  1.0,  1.0,  1.0,  1.0,  1.0, 99.0
1294.2,  400.0, -23.5, -34.4,  36.2,   17.0,    4.1,  17.5, 256.5,   4.0,  -64.128, -31.309, 999.0, 999.0,  7432.9,  1.0,  1.0,  1.0,  1.0,  1.0, 99.0
1309.7,  395.0, -24.1, -34.5,  37.7,   17.2,    4.0,  17.7, 256.9,   5.5,  -64.126, -31.309, 999.0, 999.0,  7525.2,  1.0,  1.0,  1.0,  1.0,  1.0, 99.0
1325.2,  390.0, -24.9, -34.3,  41.1,   17.1,    3.0,  17.4, 260.1,   5.8,  -64.124, -31.308, 999.0, 999.0,  7616.4,  1.0,  1.0,  1.0,  1.0,  1.0, 99.0
1343.0,  385.0, -25.8, -33.2,  49.9,   17.6,    0.4,  17.6, 268.5,   5.5,  -64.120, -31.308, 999.0, 999.0,  7711.5,  1.0,  1.0,  1.0,  1.0,  1.0, 99.0
1360.0,  380.0, -26.2, -32.7,  54.4,   18.3,   -0.3,  18.3, 270.9,   5.5,  -64.117, -31.308, 999.0, 999.0,  7805.0,  1.0,  1.0,  1.0,  1.0,  1.0, 99.0
1378.3,  375.0, -27.0, -33.2,  55.4,   19.4,   -0.3,  19.4, 270.9,   6.0,  -64.113, -31.308, 999.0, 999.0,  7901.7,  1.0,  1.0,  1.0,  1.0,  1.0, 99.0
1395.0,  370.0, -27.7, -34.5,  52.0,   21.5,   -1.5,  21.6, 274.0,   8.0,  -64.110, -31.308, 999.0, 999.0,  7998.0,  1.0,  1.0,  1.0,  1.0,  1.0, 99.0
1411.6,  365.0, -28.3, -36.3,  46.2,   22.4,   -1.6,  22.4, 274.1,   5.0,  -64.106, -31.309, 999.0, 999.0,  8096.0,  1.0,  1.0,  1.0,  1.0,  1.0, 99.0
1430.0,  360.0, -28.9, -37.5,  43.2,   22.3,   -1.6,  22.4, 274.1,   7.5,  -64.101, -31.309, 999.0, 999.0,  8195.0,  1.0,  1.0,  1.0,  1.0,  1.0, 99.0
1447.0,  355.0, -29.3, -37.9,  43.1,   22.7,   -1.6,  22.8, 274.0,   6.0,  -64.097, -31.309, 999.0, 999.0,  8294.0,  1.0,  1.0,  1.0,  1.0,  1.0, 99.0
1463.0,  350.0, -30.2, -38.3,  44.9,   23.5,   -1.2,  23.5, 272.9,   6.0,  -64.094, -31.309, 999.0, 999.0,  8396.0,  1.0,  1.0,  1.0,  1.0,  1.0, 99.0
1480.8,  345.0, -31.1, -38.5,  48.1,   25.1,   -0.2,  25.1, 270.5,   5.2,  -64.089, -31.309, 999.0, 999.0,  8496.5,  1.0,  1.0,  1.0,  1.0,  1.0, 99.0
1498.4,  340.0, -32.1, -38.8,  51.6,   25.4,    0.9,  25.4, 268.0,   5.2,  -64.084, -31.309, 999.0, 999.0,  8601.1,  2.0,  1.0,  1.0,  1.0,  1.0, 99.0
1519.0,  335.0, -33.1, -38.9,  55.7,   26.2,    1.2,  26.2, 267.5,   6.0,  -64.079, -31.309, 999.0, 999.0,  8706.0,  1.0,  1.0,  1.0,  1.0,  1.0, 99.0
1537.7,  330.0, -34.0, -39.2,  59.5,   28.2,   -0.5,  28.2, 271.0,   7.0,  -64.073, -31.309, 999.0, 999.0,  8811.7,  1.0,  1.0,  1.0,  1.0,  1.0, 99.0
1557.6,  325.0, -34.7, -39.8,  60.2,   28.4,   -1.5,  28.5, 273.0,   5.0,  -64.067, -31.309, 999.0, 999.0,  8918.0,  1.0,  1.0,  1.0,  1.0,  1.0, 99.0
1578.3,  320.0, -35.3, -42.2,  49.4,   27.2,   -0.4,  27.2, 270.9,   7.5,  -64.061, -31.310, 999.0, 999.0,  9026.1,  1.0,  1.0,  1.0,  1.0,  1.0, 99.0
1596.4,  315.0, -36.1, -40.6,  63.4,   26.4,   -0.6,  26.4, 271.3,   5.5,  -64.056, -31.310, 999.0, 999.0,  9135.2,  1.0,  1.0,  1.0,  1.0,  1.0, 99.0
1614.0,  310.0, -36.8, -41.2,  63.3,   25.6,   -1.3,  25.6, 272.9,   8.0,  -64.051, -31.310, 999.0, 999.0,  9246.0,  1.0,  1.0,  1.0,  1.0,  1.0, 99.0
1635.5,  305.0, -37.9, -41.9,  65.9,   26.0,   -0.5,  26.0, 271.1,   4.5,  -64.045, -31.310, 999.0, 999.0,  9358.8,  1.0,  1.0,  1.0,  1.0,  1.0, 99.0
