Time,Press,Temp,Dewpt,RH,Ucmp,Vcmp,spd,dir,Wcm, Lon,Lat,Ele,Azi,Alt, Qp,Qt,Qr, Qu,Qv,Qd
   0.0,  947.1,  20.1,  19.6,  96.9,   -0.7,    2.0,   2.1, 160.0, 999.0,  -64.212, -31.298, 999.0, 999.0,   490.0,  1.0,  1.0,  1.0,  1.0,  1.0,  9.0
   2.7,  945.0,  19.7,  19.2,  97.2,   -0.5,    4.5,   4.5, 173.6,   5.5,  -64.212, -31.298, 999.0, 999.0,   508.7,  1.0,  1.0,  1.0,  1.0,  1.0, 99.0
  12.7,  940.0,  19.4,  19.1,  98.3,   -0.6,    4.0,   4.0, 171.0,   5.5,  -64.212, -31.297, 999.0, 999.0,   554.7,  1.0,  1.0,  1.0,  1.0,  1.0, 99.0
  21.2,  935.0,  19.0,  18.9,  98.8,   -1.1,    4.6,   4.7, 166.4,   5.5,  -64.212, -31.297, 999.0, 999.0,   600.4,  1.0,  1.0,  1.0,  1.0,  1.0, 99.0
  30.0,  930.0,  18.8,  18.7,  99.4,   -1.9,    4.9,   5.3, 158.8,   6.0,  -64.212, -31.297, 999.0, 999.0,   647.0,  1.0,  1.0,  1.0,  1.0,  1.0, 99.0
  39.5,  925.0,  18.6,  18.5,  99.7,   -2.6,    5.7,   6.2, 155.6,   5.0,  -64.212, -31.296, 999.0, 999.0,   693.3,  1.0,  1.0,  1.0,  1.0,  1.0, 99.0
  48.7,  920.0,  18.4,  18.4, 100.0,   -2.9,    6.2,   6.9, 155.1,   5.5,  -64.213, -31.296, 999.0, 999.0,   739.7,  1.0,  1.0,  1.0,  1.0,  1.0, 99.0
  57.8,  915.0,  18.2,  18.2,  99.7,   -3.0,    6.3,   7.0, 154.6,   5.5,  -64.213, -31.295, 999.0, 999.0,   787.1,  1.0,  1.0,  1.0,  1.0,  1.0, 99.0
  66.0,  910.0,  18.1,  18.1, 100.1,   -2.9,    6.5,   7.1, 156.0,   6.0,  -64.213, -31.295, 999.0, 999.0,   835.0,  1.0,  1.0,  2.0,  1.0,  1.0, 99.0
  74.8,  905.0,  17.9,  17.9, 100.0,   -3.0,    6.4,   7.0, 154.4,   5.5,  -64.214, -31.294, 999.0, 999.0,   881.6,  1.0,  1.0,  1.0,  1.0,  1.0, 99.0
  83.5,  900.0,  17.7,  17.7,  99.7,   -3.0,    6.0,   6.7, 153.4,   6.0,  -64.214, -31.294, 999.0, 999.0,   929.0,  1.0,  1.0,  1.0,  1.0,  1.0, 99.0
  91.8,  895.0,  17.5,  17.4,  99.6,   -3.0,    5.9,   6.6, 153.1,   5.0,  -64.214, -31.293, 999.0, 999.0,   977.0,  1.0,  1.0,  1.0,  1.0,  1.0, 99.0
 100.7,  890.0,  17.3,  17.2,  99.3,   -2.8,    5.4,   6.1, 152.5,   6.0,  -64.214, -31.293, 999.0, 999.0,  1025.0,  1.0,  1.0,  1.0,  1.0,  1.0, 99.0
 108.9,  885.0,  17.3,  17.2,  99.7,   -2.3,    5.2,   5.6, 156.0,   6.0,  -64.215, -31.293, 999.0, 999.0,  1073.1,  1.0,  1.0,  1.0,  1.0,  1.0, 99.0
 117.6,  880.0,  17.1,  17.1,  99.7,   -2.2,    4.4,   4.9, 153.3,   5.0,  -64.215, -31.292, 999.0, 999.0,  1121.2,  1.0,  1.0,  1.0,  1.0,  1.0, 99.0
 125.5,  875.0,  16.9,  16.9,  99.8,   -2.2,    3.7,   4.3, 149.4,   7.0,  -64.215, -31.292, 999.0, 999.0,  1170.3,  1.0,  1.0,  1.0,  1.0,  1.0, 99.0
 134.5,  870.0,  16.7,  16.6,  99.7,   -2.6,    3.1,   4.0, 140.1,   6.0,  -64.215, -31.292, 999.0, 999.0,  1220.0,  1.0,  1.0,  1.0,  1.0,  1.0, 99.0
 143.6,  865.0,  16.5,  16.4,  99.7,   -3.6,    2.7,   4.5, 127.2,   5.5,  -64.216, -31.291, 999.0, 999.0,  1269.0,  1.0,  1.0,  1.0,  1.0,  1.0, 99.0
 153.6,  860.0,  16.3,  16.2,  99.5,   -3.6,    1.8,   4.0, 116.8,   4.5,  -64.216, -31.291, 999.0, 999.0,  1318.0,  1.0,  1.0,  1.0,  1.0,  1.0, 99.0
 163.2,  855.0,  16.1,  16.0,  99.6,   -3.8,    1.2,   4.0, 108.1,   6.0,  -64.216, -31.291, 999.0, 999.0,  1368.0,  1.0,  1.0,  1.0,  1.0,  1.0, 99.0
 172.4,  850.0,  15.8,  15.8,  99.5,   -3.2,    0.8,   3.3, 103.8,   5.8,  -64.217, -31.291, 999.0, 999.0,  1418.0,  1.0,  1.0,  1.0,  1.0,  1.0, 99.0
 182.0,  845.0,  15.9,  15.9, 100.2,   -3.2,    0.8,   3.3, 104.0,   5.0,  -64.217, -31.291, 999.0, 999.0,  1468.0,  1.0,  1.0,  2.0,  1.0,  1.0, 99.0
 192.0,  840.0,  15.7,  15.7,  99.9,   -2.9,   -0.1,   2.9,  88.0,   5.5,  -64.217, -31.291, 999.0, 999.0,  1519.0,  1.0,  1.0,  1.0,  1.0,  1.0, 99.0
 201.0,  835.0,  15.5,  15.5,  99.9,   -3.2,   -1.1,   3.3,  70.8,   5.0,  -64.218, -31.291, 999.0, 999.0,  1570.0,  1.0,  1.0,  1.0,  1.0,  1.0, 99.0
 211.3,  830.0,  15.5,  15.4,  99.7,   -3.1,   -2.1,   3.7,  55.9,   4.8,  -64.218, -31.291, 999.0, 999.0,  1621.2,  1.0,  1.0,  1.0,  1.0,  1.0, 99.0
 221.4,  825.0,  14.9,  14.6,  98.0,   -3.3,   -3.0,   4.5,  48.0,   5.2,  -64.218, -31.291, 999.0, 999.0,  1672.0,  1.0,  1.0,  1.0,  1.0,  1.0, 99.0
 232.6,  820.0,  15.2,  14.8,  97.7,   -3.0,   -4.0,   5.0,  37.2,   5.0,  -64.219, -31.292, 999.0, 999.0,  1724.0,  1.0,  1.0,  1.0,  1.0,  1.0, 99.0
 242.8,  815.0,  15.7,  15.6,  99.5,   -3.2,   -5.6,   6.5,  29.7,   5.5,  -64.219, -31.292, 999.0, 999.0,  1776.4,  1.0,  1.0,  1.0,  1.0,  1.0, 99.0
 253.0,  810.0,  15.9,  15.9,  99.9,   -3.0,   -7.5,   8.0,  21.6,   5.5,  -64.219, -31.293, 999.0, 999.0,  1828.5,  1.0,  1.0,  1.0,  1.0,  1.0, 99.0
 262.4,  805.0,  16.1,  16.1, 100.0,   -2.8,   -9.4,   9.8,  16.7,   6.0,  -64.220, -31.293, 999.0, 999.0,  1882.2,  1.0,  1.0,  1.0,  1.0,  1.0, 99.0
 271.6,  800.0,  16.2,  16.2,  99.6,   -2.3,  -10.9,  11.1,  12.0,   5.0,  -64.220, -31.294, 999.0, 999.0,  1935.0,  1.0,  1.0,  1.0,  1.0,  1.0, 99.0
 280.9,  795.0,  16.1,  15.8,  98.5,   -2.3,  -11.8,  12.0,  11.0,   5.0,  -64.220, -31.295, 999.0, 999.0,  1988.4,  1.0,  1.0,  1.0,  1.0,  1.0, 99.0
 290.9,  790.0,  15.8,  15.6,  98.9,   -2.2,  -12.0,  12.2,  10.5,   6.5,  -64.220, -31.296, 999.0, 999.0,  2041.9,  1.0,  1.0,  1.0,  1.0,  1.0, 99.0
 301.0,  785.0,  15.6,  15.5,  99.2,   -2.1,  -11.4,  11.5,  10.5,   5.0,  -64.221, -31.298, 999.0, 999.0,  2096.0,  1.0,  1.0,  1.0,  1.0,  1.0, 99.0
 311.0,  780.0,  15.3,  15.0,  98.1,   -1.5,  -11.3,  11.4,   7.6,   5.5,  -64.221, -31.298, 999.0, 999.0,  2150.5,  1.0,  1.0,  1.0,  1.0,  1.0, 99.0
 320.4,  775.0,  15.1,  14.8,  98.4,   -1.0,  -11.6,  11.7,   4.9,   6.5,  -64.221, -31.299, 999.0, 999.0,  2205.4,  1.0,  1.0,  1.0,  1.0,  1.0, 99.0
 329.6,  770.0,  14.7,  14.5,  98.5,   -0.1,  -13.0,  13.0,   0.4,   5.5,  -64.221, -31.300, 999.0, 999.0,  2260.6,  1.0,  1.0,  1.0,  1.0,  1.0, 99.0
 337.6,  765.0,  14.4,  14.2,  98.9,    0.7,  -14.1,  14.2, 357.3,   8.0,  -64.221, -31.301, 999.0, 999.0,  2315.6,  1.0,  1.0,  1.0,  1.0,  1.0, 99.0
 345.4,  760.0,  14.0,  13.6,  97.4,    2.0,  -15.2,  15.3, 352.5,   6.5,  -64.221, -31.302, 999.0, 999.0,  2371.0,  1.0,  1.0,  1.0,  1.0,  1.0, 99.0
 354.3,  755.0,  13.8,  13.3,  97.0,    2.8,  -15.8,  16.0, 350.1,   8.0,  -64.221, -31.304, 999.0, 999.0,  2427.3,  1.0,  1.0,  1.0,  1.0,  1.0, 99.0
 362.9,  750.0,  13.5,  12.9,  96.6,    2.7,  -15.6,  15.8, 350.3,   6.0,  -64.220, -31.305, 999.0, 999.0,  2483.5,  1.0,  1.0,  1.0,  1.0,  1.0, 99.0
 372.2,  745.0,  13.1,  12.7,  97.4,    1.8,  -15.0,  15.1, 353.2,   6.0,  -64.220, -31.306, 999.0, 999.0,  2540.1,  1.0,  1.0,  1.0,  1.0,  1.0, 99.0
 381.6,  740.0,  12.7,  12.3,  97.1,    1.3,  -15.2,  15.2, 355.1,   5.5,  -64.220, -31.307, 999.0, 999.0,  2596.6,  1.0,  1.0,  1.0,  1.0,  1.0, 99.0
 389.8,  735.0,  12.4,  12.2,  98.8,    1.4,  -15.5,  15.6, 354.8,   6.5,  -64.220, -31.308, 999.0, 999.0,  2652.9,  1.0,  1.0,  1.0,  1.0,  1.0, 99.0
 399.1,  730.0,  12.2,  12.2,  99.8,    2.4,  -16.7,  16.8, 352.0,   5.5,  -64.220, -31.310, 999.0, 999.0,  2711.1,  1.0,  1.0,  1.0,  1.0,  1.0, 99.0
 407.3,  725.0,  11.9,  11.9, 100.0,    2.8,  -17.6,  17.8, 350.9,   6.5,  -64.219, -31.311, 999.0, 999.0,  2768.7,  1.0,  1.0,  1.0,  1.0,  1.0, 99.0
 415.6,  720.0,  11.7,  11.7,  99.9,    3.2,  -17.9,  18.2, 349.9,   8.0,  -64.219, -31.313, 999.0, 999.0,  2827.6,  1.0,  1.0,  1.0,  1.0,  1.0, 99.0
 424.2,  715.0,  11.4,  11.4,  99.8,    2.8,  -17.8,  18.0, 351.1,   6.5,  -64.219, -31.314, 999.0, 999.0,  2886.1,  1.0,  1.0,  1.0,  1.0,  1.0, 99.0
 432.8,  710.0,  11.1,  11.1,  99.8,    2.9,  -17.4,  17.6, 350.5,   7.5,  -64.219, -31.315, 999.0, 999.0,  2944.8,  1.0,  1.0,  1.0,  1.0,  1.0, 99.0
 440.9,  705.0,  10.9,  10.9,  99.9,    3.8,  -17.2,  17.6, 347.4,   7.5,  -64.218, -31.316, 999.0, 999.0,  3002.9,  1.0,  1.0,  1.0,  1.0,  1.0, 99.0
 448.8,  700.0,  10.5,  10.5,  99.8,    4.6,  -17.8,  18.4, 345.6,   8.5,  -64.218, -31.318, 999.0, 999.0,  3062.8,  1.0,  1.0,  1.0,  1.0,  1.0, 99.0
 456.3,  695.0,  10.2,  10.2,  99.7,    5.3,  -18.5,  19.3, 344.0,   7.5,  -64.218, -31.319, 999.0, 999.0,  3123.3,  1.0,  1.0,  1.0,  1.0,  1.0, 99.0
 464.2,  690.0,   9.8,   9.8,  99.7,    5.5,  -19.0,  19.8, 343.9,   7.5,  -64.217, -31.320, 999.0, 999.0,  3183.2,  1.0,  1.0,  1.0,  1.0,  1.0, 99.0
 472.8,  685.0,   9.5,   9.5, 100.1,    5.4,  -18.8,  19.6, 344.0,   6.7,  -64.217, -31.322, 999.0, 999.0,  3243.8,  1.0,  1.0,  2.0,  1.0,  1.0, 99.0
 482.2,  680.0,   9.3,   9.3, 100.1,    5.4,  -18.8,  19.5, 344.0,   5.5,  -64.216, -31.323, 999.0, 999.0,  3305.2,  1.0,  1.0,  2.0,  1.0,  1.0, 99.0
 492.2,  675.0,   8.7,   8.7,  99.9,    5.3,  -18.4,  19.2, 343.9,   7.0,  -64.216, -31.325, 999.0, 999.0,  3366.3,  1.0,  1.0,  1.0,  1.0,  1.0, 99.0
 502.0,  670.0,   8.3,   8.3, 100.2,    5.3,  -18.4,  19.1, 343.9,   6.0,  -64.215, -31.327, 999.0, 999.0,  3428.0,  1.0,  1.0,  2.0,  1.0,  1.0, 99.0
 512.2,  665.0,   7.9,   7.9,  99.9,    5.5,  -18.0,  18.8, 343.0,   5.7,  -64.214, -31.328, 999.0, 999.0,  3490.2,  1.0,  1.0,  1.0,  1.0,  1.0, 99.0
 522.6,  660.0,   7.4,   7.4, 100.0,    5.6,  -18.5,  19.3, 343.1,   5.8,  -64.214, -31.330, 999.0, 999.0,  3552.0,  1.0,  1.0,  1.0,  1.0,  1.0, 99.0
 534.0,  655.0,   7.1,   7.1, 100.0,    6.1,  -18.6,  19.6, 341.8,   4.5,  -64.213, -31.332, 999.0, 999.0,  3615.0,  2.0,  2.0,  2.0,  1.0,  1.0, 99.0
 547.6,  650.0,   6.0,   6.0,  99.9,    5.5,  -19.3,  20.1, 344.0,   4.3,  -64.212, -31.334, 999.0, 999.0,  3678.6,  1.0,  1.0,  1.0,  1.0,  1.0, 99.0
 561.3,  645.0,   5.5,   5.5,  99.8,    4.7,  -20.2,  20.8, 347.0,   4.7,  -64.211, -31.337, 999.0, 999.0,  3741.3,  1.0,  1.0,  2.0,  1.0,  1.0, 99.0
 575.1,  640.0,   5.2,   5.2, 100.1,    4.6,  -21.5,  22.0, 347.9,   4.5,  -64.211, -31.340, 999.0, 999.0,  3805.1,  1.0,  1.0,  2.0,  1.0,  1.0, 99.0
 589.7,  635.0,   4.5,   4.5, 100.0,    4.3,  -21.9,  22.3, 348.9,   4.0,  -64.210, -31.342, 999.0, 999.0,  3868.9,  1.0,  1.0,  2.0,  1.0,  1.0, 99.0
 604.3,  630.0,   4.2,   4.2, 100.0,    5.1,  -21.9,  22.5, 346.9,   4.8,  -64.210, -31.345, 999.0, 999.0,  3934.3,  1.0,  1.0,  2.0,  1.0,  1.0, 99.0
 617.4,  625.0,   3.6,   3.6, 100.1,    5.1,  -22.1,  22.7, 347.0,   4.5,  -64.209, -31.348, 999.0, 999.0,  3999.4,  1.0,  1.0,  2.0,  1.0,  1.0, 99.0
 631.4,  620.0,   3.1,   3.0,  99.8,    4.7,  -21.7,  22.2, 347.8,   4.5,  -64.208, -31.351, 999.0, 999.0,  4064.4,  1.0,  1.0,  1.0,  1.0,  1.0, 99.0
 647.7,  615.0,   2.6,   2.6,  99.9,    4.3,  -22.1,  22.5, 349.0,   4.0,  -64.207, -31.354, 999.0, 999.0,  4129.7,  1.0,  1.0,  1.0,  1.0,  1.0, 99.0
 667.5,  610.0,   2.3,   2.3, 100.3,    3.9,  -22.4,  22.7, 350.1,   3.0,  -64.206, -31.358, 999.0, 999.0,  4195.5,  1.0,  1.0,  2.0,  1.0,  1.0, 99.0
 687.3,  605.0,   1.4,   1.4,  99.9,    3.9,  -22.2,  22.5, 350.0,   3.5,  -64.206, -31.362, 999.0, 999.0,  4261.7,  1.0,  1.0,  1.0,  1.0,  1.0, 99.0
 702.9,  600.0,   1.5,   1.5,  99.7,    3.8,  -21.0,  21.4, 349.7,   5.0,  -64.205, -31.365, 999.0, 999.0,  4329.3,  1.0,  1.0,  1.0,  1.0,  1.0, 99.0
 719.1,  595.0,   1.7,   1.7,  99.8,    3.5,  -19.8,  20.1, 350.0,   4.0,  -64.204, -31.368, 999.0, 999.0,  4396.6,  1.0,  1.0,  1.0,  1.0,  1.0, 99.0
 736.0,  590.0,   1.5,   1.5,  99.7,    3.7,  -19.0,  19.4, 349.0,   2.5,  -64.204, -31.371, 999.0, 999.0,  4465.0,  1.0,  1.0,  1.0,  1.0,  1.0, 99.0
 755.5,  585.0,   0.9,   0.9,  99.9,    4.7,  -18.7,  19.3, 345.9,   3.0,  -64.203, -31.374, 999.0, 999.0,  4533.5,  1.0,  1.0,  1.0,  1.0,  1.0, 99.0
 772.7,  580.0,   0.8,   0.8, 100.0,    4.5,  -19.3,  19.9, 346.9,   4.5,  -64.202, -31.377, 999.0, 999.0,  4602.0,  1.0,  1.0,  1.0,  1.0,  1.0, 99.0
 789.2,  575.0,   0.6,   0.4,  98.8,    4.7,  -17.7,  18.3, 345.0,   3.0,  -64.201, -31.380, 999.0, 999.0,  4672.6,  1.0,  1.0,  1.0,  1.0,  1.0, 99.0
 808.7,  570.0,   0.1,  -0.4,  96.1,    4.7,  -16.7,  17.3, 344.3,   5.0,  -64.200, -31.383, 999.0, 999.0,  4742.3,  1.0,  1.0,  1.0,  1.0,  1.0, 99.0
 825.0,  565.0,  -0.2,  -0.9,  94.6,    3.1,  -17.8,  18.0, 350.1,   4.5,  -64.199, -31.385, 999.0, 999.0,  4813.5,  1.0,  1.0,  1.0,  1.0,  1.0, 99.0
 842.0,  560.0,  -1.0,  -1.6,  95.9,    2.5,  -17.8,  18.0, 352.0,   5.0,  -64.199, -31.388, 999.0, 999.0,  4884.0,  1.0,  1.0,  1.0,  1.0,  1.0, 99.0
 857.7,  555.0,  -1.5,  -2.2,  94.9,    3.2,  -17.9,  18.1, 349.8,   5.3,  -64.199, -31.391, 999.0, 999.0,  4956.5,  1.0,  1.0,  1.0,  1.0,  1.0, 99.0
 870.9,  550.0,  -2.1,  -2.7,  95.8,    3.8,  -17.9,  18.3, 348.0,   5.0,  -64.198, -31.393, 999.0, 999.0,  5028.3,  1.0,  1.0,  1.0,  1.0,  1.0, 99.0
 883.0,  545.0,  -2.8,  -3.3,  96.3,    4.0,  -17.5,  18.0, 347.1,   5.5,  -64.197, -31.395, 999.0, 999.0,  5101.5,  1.0,  1.0,  1.0,  1.0,  1.0, 99.0
 895.0,  540.0,  -3.4,  -3.8,  97.1,    4.3,  -18.6,  19.0, 346.9,   5.5,  -64.197, -31.397, 999.0, 999.0,  5173.5,  1.0,  1.0,  1.0,  1.0,  1.0, 99.0
 907.7,  535.0,  -3.7,  -4.3,  95.8,    4.2,  -19.7,  20.1, 348.0,   6.5,  -64.197, -31.399, 999.0, 999.0,  5247.0,  1.0,  1.0,  1.0,  1.0,  1.0, 99.0
 919.6,  530.0,  -4.3,  -4.9,  95.8,    4.7,  -20.4,  20.9, 347.0,   5.2,  -64.196, -31.401, 999.0, 999.0,  5322.5,  1.0,  1.0,  1.0,  1.0,  1.0, 99.0
 934.0,  525.0,  -5.1,  -5.6,  96.1,    6.2,  -20.3,  21.2, 343.0,   4.5,  -64.195, -31.404, 999.0, 999.0,  5396.0,  1.0,  1.0,  1.0,  1.0,  1.0, 99.0
 952.3,  520.0,  -5.6,  -5.9,  98.1,    6.8,  -18.7,  19.9, 340.0,   5.5,  -64.194, -31.407, 999.0, 999.0,  5471.5,  1.0,  1.0,  1.0,  1.0,  1.0, 99.0
 965.7,  515.0,  -6.1,  -6.4,  97.6,    7.1,  -19.5,  20.7, 340.0,   5.5,  -64.193, -31.409, 999.0, 999.0,  5547.5,  1.0,  1.0,  1.0,  1.0,  1.0, 99.0
 978.0,  510.0,  -6.6,  -6.9,  97.5,    8.9,  -20.9,  22.7, 336.9,   5.0,  -64.192, -31.411, 999.0, 999.0,  5624.0,  1.0,  1.0,  1.0,  1.0,  1.0, 99.0
 989.9,  505.0,  -7.1,  -7.4,  98.0,   10.4,  -22.2,  24.5, 334.9,   5.0,  -64.191, -31.414, 999.0, 999.0,  5700.5,  1.0,  1.0,  1.0,  1.0,  1.0, 99.0
1007.0,  500.0,  -7.8,  -7.9,  99.2,   11.4,  -23.3,  25.9, 333.9,   5.0,  -64.189, -31.417, 999.0, 999.0,  5778.0,  2.0,  1.0,  1.0,  1.0,  1.0, 99.0
1025.7,  495.0,  -8.0,  -8.2,  98.6,   12.6,  -22.7,  26.0, 331.0,   5.0,  -64.186, -31.421, 999.0, 999.0,  5856.6,  1.0,  1.0,  1.0,  1.0,  1.0, 99.0
1041.3,  490.0,  -7.5,  -7.8,  97.8,   12.9,  -21.4,  25.0, 328.9,   5.5,  -64.184, -31.424, 999.0, 999.0,  5936.3,  1.0,  1.0,  1.0,  1.0,  1.0, 99.0
1054.3,  485.0,  -7.5,  -8.6,  91.8,   13.8,  -20.4,  24.6, 325.9,   6.5,  -64.183, -31.427, 999.0, 999.0,  6015.6,  1.0,  1.0,  1.0,  1.0,  1.0, 99.0
1063.8,  480.0,  -8.2,  -9.4,  91.0,   15.4,  -20.5,  25.7, 323.0,   9.2,  -64.181, -31.429, 999.0, 999.0,  6096.6,  1.0,  1.0,  1.0,  1.0,  1.0, 99.0
1072.7,  475.0,  -9.0,  -9.9,  92.9,   18.0,  -20.5,  27.3, 318.8,   9.2,  -64.180, -31.430, 999.0, 999.0,  6178.3,  1.0,  1.0,  1.0,  1.0,  1.0, 99.0
1081.0,  470.0,  -9.9, -10.7,  93.5,   21.7,  -21.8,  30.7, 315.1,  10.6,  -64.178, -31.432, 999.0, 999.0,  6259.6,  1.0,  1.0,  1.0,  1.0,  1.0, 99.0
1089.2,  465.0, -10.7, -11.4,  94.6,   25.9,  -22.0,  34.0, 310.4,   9.8,  -64.176, -31.434, 999.0, 999.0,  6341.9,  1.0,  1.0,  1.0,  1.0,  1.0, 99.0
1099.8,  460.0, -11.3, -11.7,  96.9,   28.4,  -23.0,  36.5, 309.0,   6.5,  -64.172, -31.436, 999.0, 999.0,  6425.4,  1.0,  1.0,  1.0,  1.0,  1.0, 99.0
1114.0,  455.0, -11.2, -11.4,  98.3,   27.5,  -23.1,  35.9, 310.0,   6.5,  -64.168, -31.438, 999.0, 999.0,  6509.0,  1.0,  1.0,  1.0,  1.0,  1.0, 99.0
1125.6,  450.0, -10.9, -11.2,  97.9,   27.0,  -22.6,  35.2, 310.0,   8.5,  -64.165, -31.441, 999.0, 999.0,  6594.6,  1.0,  1.0,  1.0,  1.0,  1.0, 99.0
1144.6,  445.0, -11.7, -12.0,  97.0,   27.6,  -20.0,  34.1, 305.9,   3.0,  -64.159, -31.444, 999.0, 999.0,  6679.7,  2.0,  2.0,  2.0,  1.0,  1.0, 99.0
