Time,Press,Temp,Dewpt,RH,Ucmp,Vcmp,spd,dir,Wcm, Lon,Lat,Ele,Azi,Alt, Qp,Qt,Qr, Qu,Qv,Qd
   0.0,  952.4,  23.0,  14.9,  60.3,   -3.1,   -2.6,   4.1,  50.0, 999.0,  -64.212, -31.298, 999.0, 999.0,   490.0,  1.0,  1.0,  1.0,  1.0,  1.0,  9.0
   4.7,  950.0,  23.3,  15.2,  60.2,   -2.0,   -4.8,   5.2,  22.3,   5.5,  -64.212, -31.298, 999.0, 999.0,   512.7,  1.0,  1.0,  1.0,  1.0,  1.0, 99.0
  12.4,  945.0,  22.8,  15.8,  64.8,   -1.7,   -5.1,   5.3,  18.3,   6.5,  -64.212, -31.299, 999.0, 999.0,   557.8,  1.0,  1.0,  1.0,  1.0,  1.0, 99.0
  20.4,  940.0,  22.7,  16.0,  66.0,   -1.3,   -5.9,   6.0,  12.5,   6.5,  -64.212, -31.299, 999.0, 999.0,   604.8,  1.0,  1.0,  1.0,  1.0,  1.0, 99.0
  30.4,  935.0,  22.6,  15.7,  65.2,   -1.2,   -7.4,   7.5,   8.9,   4.5,  -64.212, -31.299, 999.0, 999.0,   650.8,  1.0,  1.0,  1.0,  1.0,  1.0, 99.0
  40.6,  930.0,  22.8,  15.4,  63.2,   -0.7,  -10.1,  10.1,   4.0,   4.6,  -64.213, -31.300, 999.0, 999.0,   697.4,  1.0,  1.0,  1.0,  1.0,  1.0, 99.0
  51.0,  925.0,  23.0,  15.1,  61.1,    0.0,  -11.7,  11.7,   0.0,   4.0,  -64.213, -31.301, 999.0, 999.0,   744.0,  2.0,  1.0,  1.0,  1.0,  1.0, 99.0
  59.4,  920.0,  23.4,  14.7,  58.0,    0.6,  -12.6,  12.6, 357.4,   5.8,  -64.213, -31.302, 999.0, 999.0,   792.2,  1.0,  1.0,  1.0,  1.0,  1.0, 99.0
  68.5,  915.0,  23.1,  13.9,  56.0,    1.2,  -13.3,  13.4, 354.6,   5.5,  -64.213, -31.303, 999.0, 999.0,   839.7,  1.0,  1.0,  1.0,  1.0,  1.0, 99.0
  77.3,  910.0,  22.8,  13.6,  55.9,    1.3,  -13.9,  13.9, 354.6,   5.2,  -64.212, -31.304, 999.0, 999.0,   888.1,  1.0,  1.0,  1.0,  1.0,  1.0, 99.0
  85.3,  905.0,  22.5,  13.3,  56.2,    1.3,  -14.4,  14.4, 354.8,   5.5,  -64.212, -31.306, 999.0, 999.0,   935.3,  1.0,  1.0,  1.0,  1.0,  1.0, 99.0
  94.2,  900.0,  22.2,  13.0,  55.8,    1.6,  -15.0,  15.1, 353.9,   5.5,  -64.212, -31.307, 999.0, 999.0,   983.9,  1.0,  1.0,  1.0,  1.0,  1.0, 99.0
 103.1,  895.0,  21.8,  12.7,  56.4,    2.0,  -15.5,  15.6, 352.5,   5.5,  -64.212, -31.308, 999.0, 999.0,  1032.0,  1.0,  1.0,  1.0,  1.0,  1.0, 99.0
 112.4,  890.0,  21.4,  12.6,  57.4,    2.6,  -16.2,  16.4, 350.9,   5.0,  -64.212, -31.309, 999.0, 999.0,  1080.0,  1.0,  1.0,  1.0,  1.0,  1.0, 99.0
 122.3,  885.0,  20.9,  12.7,  59.5,    2.7,  -17.0,  17.2, 351.0,   5.5,  -64.211, -31.311, 999.0, 999.0,  1129.8,  1.0,  1.0,  1.0,  1.0,  1.0, 99.0
 131.6,  880.0,  20.6,  12.7,  60.7,    2.5,  -17.4,  17.6, 352.0,   5.5,  -64.211, -31.312, 999.0, 999.0,  1179.0,  1.0,  1.0,  1.0,  1.0,  1.0, 99.0
 141.1,  875.0,  20.2,  12.2,  60.0,    2.2,  -17.8,  17.9, 352.9,   5.5,  -64.211, -31.314, 999.0, 999.0,  1228.0,  1.0,  1.0,  1.0,  1.0,  1.0, 99.0
 150.0,  870.0,  19.8,  11.9,  60.3,    1.9,  -18.0,  18.1, 354.0,   4.5,  -64.211, -31.315, 999.0, 999.0,  1277.0,  1.0,  1.0,  1.0,  1.0,  1.0, 99.0
 160.2,  865.0,  19.7,  11.7,  59.8,    1.3,  -18.1,  18.2, 355.9,   5.0,  -64.211, -31.317, 999.0, 999.0,  1327.0,  1.0,  1.0,  1.0,  1.0,  1.0, 99.0
 170.4,  860.0,  19.4,  11.3,  59.3,    0.9,  -18.1,  18.1, 357.2,   5.0,  -64.210, -31.318, 999.0, 999.0,  1377.0,  1.0,  1.0,  1.0,  1.0,  1.0, 99.0
 180.0,  855.0,  19.0,  10.4,  57.3,    0.6,  -18.4,  18.4, 358.1,   5.5,  -64.210, -31.320, 999.0, 999.0,  1427.0,  1.0,  1.0,  1.0,  1.0,  1.0, 99.0
 189.0,  850.0,  18.5,   9.7,  56.6,    0.7,  -18.9,  18.9, 357.9,   5.8,  -64.210, -31.321, 999.0, 999.0,  1478.0,  1.0,  2.0,  2.0,  1.0,  1.0, 99.0
 197.7,  845.0,  18.1,   9.9,  58.6,    0.7,  -19.7,  19.7, 358.0,   6.0,  -64.210, -31.323, 999.0, 999.0,  1528.0,  2.0,  1.0,  1.0,  1.0,  1.0, 99.0
 207.6,  840.0,  17.8,   9.2,  57.0,    1.3,  -19.4,  19.5, 356.1,   5.0,  -64.210, -31.325, 999.0, 999.0,  1579.0,  1.0,  1.0,  1.0,  1.0,  1.0, 99.0
 216.6,  835.0,  17.4,   9.3,  58.9,    1.3,  -19.0,  19.1, 356.1,   7.0,  -64.210, -31.326, 999.0, 999.0,  1630.0,  1.0,  1.0,  1.0,  1.0,  1.0, 99.0
 225.8,  830.0,  16.9,   9.3,  60.7,    1.0,  -18.2,  18.2, 356.9,   5.5,  -64.210, -31.328, 999.0, 999.0,  1681.0,  1.0,  1.0,  1.0,  1.0,  1.0, 99.0
 237.3,  825.0,  16.5,   9.6,  63.6,    0.7,  -18.2,  18.2, 357.8,   4.0,  -64.210, -31.330, 999.0, 999.0,  1733.0,  1.0,  1.0,  1.0,  1.0,  1.0, 99.0
 248.7,  820.0,  16.1,   9.4,  64.4,    0.0,  -18.3,  18.3,   0.0,   4.5,  -64.210, -31.332, 999.0, 999.0,  1784.4,  1.0,  1.0,  1.0,  1.0,  1.0, 99.0
 258.7,  815.0,  15.6,   9.4,  66.4,    0.3,  -18.4,  18.4, 359.1,   6.1,  -64.210, -31.333, 999.0, 999.0,  1836.9,  1.0,  1.0,  1.0,  1.0,  1.0, 99.0
 268.0,  810.0,  15.2,   9.4,  68.5,    0.6,  -18.1,  18.1, 358.1,   4.5,  -64.210, -31.335, 999.0, 999.0,  1889.0,  1.0,  1.0,  1.0,  1.0,  1.0, 99.0
 279.0,  805.0,  14.6,   9.1,  69.3,    1.1,  -17.8,  17.8, 356.6,   5.5,  -64.210, -31.337, 999.0, 999.0,  1941.5,  1.0,  1.0,  1.0,  1.0,  1.0, 99.0
 290.2,  800.0,  14.3,   8.7,  69.2,    1.3,  -17.2,  17.2, 355.8,   5.0,  -64.210, -31.338, 999.0, 999.0,  1994.0,  1.0,  1.0,  1.0,  1.0,  1.0, 99.0
 302.0,  795.0,  13.9,   7.9,  67.1,    2.0,  -16.6,  16.7, 353.1,   4.0,  -64.209, -31.340, 999.0, 999.0,  2047.0,  1.0,  1.0,  1.0,  1.0,  1.0, 99.0
 312.9,  790.0,  14.0,   7.0,  62.7,    2.5,  -15.9,  16.1, 351.0,   4.5,  -64.209, -31.342, 999.0, 999.0,  2100.0,  1.0,  1.0,  1.0,  1.0,  1.0, 99.0
 324.6,  785.0,  13.7,   6.8,  63.0,    3.1,  -14.7,  15.0, 348.1,   4.0,  -64.209, -31.343, 999.0, 999.0,  2154.3,  1.0,  1.0,  1.0,  1.0,  1.0, 99.0
 335.8,  780.0,  13.4,   7.0,  65.0,    2.7,  -13.9,  14.2, 349.0,   5.0,  -64.208, -31.345, 999.0, 999.0,  2207.9,  1.0,  1.0,  1.0,  1.0,  1.0, 99.0
 345.9,  775.0,  13.1,   7.1,  66.7,    2.6,  -13.2,  13.5, 348.8,   4.5,  -64.208, -31.346, 999.0, 999.0,  2261.6,  1.0,  1.0,  1.0,  1.0,  1.0, 99.0
 357.6,  770.0,  12.7,   7.6,  70.9,    2.2,  -12.3,  12.5, 349.9,   5.3,  -64.208, -31.347, 999.0, 999.0,  2316.5,  1.0,  1.0,  1.0,  1.0,  1.0, 99.0
 368.7,  765.0,  12.5,   7.9,  73.7,    2.4,  -11.4,  11.6, 348.1,   5.0,  -64.208, -31.349, 999.0, 999.0,  2371.3,  1.0,  1.0,  1.0,  1.0,  1.0, 99.0
 379.8,  760.0,  12.2,   8.0,  75.4,    3.4,  -10.6,  11.1, 342.4,   6.5,  -64.207, -31.350, 999.0, 999.0,  2426.8,  1.0,  1.0,  1.0,  1.0,  1.0, 99.0
 391.0,  755.0,  11.9,   7.5,  74.9,    3.8,  -10.1,  10.8, 339.5,   4.0,  -64.207, -31.351, 999.0, 999.0,  2482.0,  1.0,  1.0,  1.0,  1.0,  1.0, 99.0
 402.5,  750.0,  11.4,   7.3,  75.9,    4.1,   -9.1,   9.9, 335.8,   4.5,  -64.206, -31.352, 999.0, 999.0,  2537.3,  1.0,  1.0,  1.0,  1.0,  1.0, 99.0
 413.6,  745.0,  11.1,   6.6,  74.0,    3.9,   -8.4,   9.3, 335.0,   6.0,  -64.206, -31.353, 999.0, 999.0,  2593.6,  1.0,  1.0,  1.0,  1.0,  1.0, 99.0
 423.1,  740.0,  10.9,   6.5,  73.8,    3.8,   -7.7,   8.6, 333.6,   6.0,  -64.205, -31.353, 999.0, 999.0,  2649.5,  1.0,  1.0,  1.0,  1.0,  1.0, 99.0
 432.7,  735.0,  11.0,   6.2,  72.0,    3.3,   -6.8,   7.6, 334.0,   5.0,  -64.205, -31.354, 999.0, 999.0,  2706.3,  1.0,  1.0,  1.0,  1.0,  1.0, 99.0
 443.2,  730.0,  12.3,   3.6,  55.3,    2.2,   -5.8,   6.2, 338.8,   5.3,  -64.205, -31.355, 999.0, 999.0,  2763.1,  1.0,  1.0,  1.0,  1.0,  1.0, 99.0
 454.3,  725.0,  14.0,  -2.0,  33.2,    2.1,   -5.6,   6.0, 339.6,   5.8,  -64.205, -31.355, 999.0, 999.0,  2821.3,  1.0,  1.0,  1.0,  1.0,  1.0, 99.0
 464.2,  720.0,  14.6,  -5.5,  24.5,    1.8,   -6.4,   6.7, 344.2,   6.0,  -64.204, -31.356, 999.0, 999.0,  2879.2,  1.0,  1.0,  1.0,  1.0,  1.0, 99.0
 474.6,  715.0,  14.3,  -6.1,  23.9,    1.8,   -7.9,   8.1, 346.8,   6.0,  -64.204, -31.356, 999.0, 999.0,  2938.6,  1.0,  1.0,  1.0,  1.0,  1.0, 99.0
 485.2,  710.0,  14.1,  -8.3,  20.4,    1.3,   -8.4,   8.5, 351.2,   5.5,  -64.204, -31.357, 999.0, 999.0,  2997.7,  1.0,  1.0,  1.0,  1.0,  1.0, 99.0
 495.6,  705.0,  13.7, -10.2,  18.0,    1.5,   -9.3,   9.4, 350.9,   6.0,  -64.204, -31.358, 999.0, 999.0,  3057.3,  1.0,  1.0,  1.0,  1.0,  1.0, 99.0
 505.0,  700.0,  13.4, -11.1,  17.1,    1.7,   -9.5,   9.7, 349.9,   6.0,  -64.204, -31.359, 999.0, 999.0,  3117.0,  1.0,  1.0,  1.0,  1.0,  1.0, 99.0
 514.9,  695.0,  12.9, -12.0,  16.6,    1.9,   -9.9,  10.1, 349.1,   6.5,  -64.203, -31.360, 999.0, 999.0,  3177.9,  1.0,  1.0,  1.0,  1.0,  1.0, 99.0
 523.3,  690.0,  12.4, -13.0,  15.6,    2.0,  -10.1,  10.3, 348.8,   6.5,  -64.203, -31.360, 999.0, 999.0,  3237.3,  1.0,  1.0,  1.0,  1.0,  1.0, 99.0
 533.8,  685.0,  12.0, -14.7,  14.0,    1.4,  -10.2,  10.3, 352.2,   5.3,  -64.203, -31.361, 999.0, 999.0,  3298.8,  1.0,  1.0,  1.0,  1.0,  1.0, 99.0
 544.7,  680.0,  11.4, -14.6,  14.7,    1.8,  -11.1,  11.3, 350.8,   6.4,  -64.203, -31.362, 999.0, 999.0,  3359.1,  1.0,  1.0,  1.0,  1.0,  1.0, 99.0
 554.0,  675.0,  11.0, -16.4,  13.0,    2.4,  -11.2,  11.5, 347.9,   6.0,  -64.203, -31.363, 999.0, 999.0,  3420.0,  1.0,  1.0,  1.0,  1.0,  1.0, 99.0
 564.6,  670.0,  10.5, -16.9,  12.9,    3.9,  -11.1,  11.8, 340.8,   6.0,  -64.202, -31.365, 999.0, 999.0,  3482.3,  1.0,  1.0,  1.0,  1.0,  1.0, 99.0
 575.0,  665.0,  10.0, -17.9,  12.3,    4.7,   -9.9,  11.0, 334.6,   6.0,  -64.202, -31.365, 999.0, 999.0,  3545.0,  1.0,  1.0,  1.0,  1.0,  1.0, 99.0
 585.0,  660.0,  10.0, -21.5,   9.0,    5.7,   -9.3,  10.9, 328.4,   6.5,  -64.201, -31.366, 999.0, 999.0,  3607.5,  1.0,  1.0,  1.0,  1.0,  1.0, 99.0
 596.2,  655.0,   9.5, -21.5,   9.3,    6.4,   -8.5,  10.6, 322.9,   6.2,  -64.201, -31.367, 999.0, 999.0,  3671.2,  1.0,  1.0,  1.0,  1.0,  1.0, 99.0
 606.7,  650.0,   8.9, -21.4,   9.8,    7.5,   -8.0,  10.9, 316.8,   7.0,  -64.200, -31.368, 999.0, 999.0,  3734.1,  1.0,  1.0,  1.0,  1.0,  1.0, 99.0
 617.5,  645.0,   8.3, -21.1,  10.5,    7.4,   -7.7,  10.7, 316.1,   5.7,  -64.199, -31.369, 999.0, 999.0,  3797.7,  1.0,  1.0,  1.0,  1.0,  1.0, 99.0
 628.5,  640.0,   7.9, -20.5,  11.3,    7.6,   -7.1,  10.5, 313.1,   5.0,  -64.198, -31.370, 999.0, 999.0,  3861.5,  1.0,  1.0,  1.0,  1.0,  1.0, 99.0
 640.0,  635.0,   7.2, -20.6,  11.8,    7.1,   -6.2,   9.4, 311.1,   6.0,  -64.197, -31.370, 999.0, 999.0,  3926.0,  1.0,  1.0,  1.0,  1.0,  1.0, 99.0
 651.8,  630.0,   6.8, -20.6,  12.1,    7.0,   -4.4,   8.3, 302.3,   6.5,  -64.196, -31.371, 999.0, 999.0,  3990.7,  1.0,  1.0,  1.0,  1.0,  1.0, 99.0
 663.6,  625.0,   6.7, -24.3,   8.8,    7.4,   -3.9,   8.4, 298.1,   6.0,  -64.195, -31.371, 999.0, 999.0,  4056.3,  1.0,  1.0,  1.0,  1.0,  1.0, 99.0
 676.0,  620.0,   6.6, -28.0,   6.3,    7.6,   -3.1,   8.2, 292.2,   5.5,  -64.194, -31.372, 999.0, 999.0,  4123.0,  1.0,  1.0,  1.0,  1.0,  1.0, 99.0
 688.0,  615.0,   6.2, -28.7,   6.1,    7.1,   -3.0,   7.7, 292.9,   5.0,  -64.194, -31.372, 999.0, 999.0,  4188.0,  1.0,  1.0,  1.0,  1.0,  1.0, 99.0
 701.1,  610.0,   5.6, -28.7,   6.3,    6.9,   -2.3,   7.3, 288.4,   5.5,  -64.193, -31.372, 999.0, 999.0,  4255.1,  1.0,  1.0,  1.0,  1.0,  1.0, 99.0
 713.6,  605.0,   5.0, -29.2,   6.3,    6.9,   -2.7,   7.4, 291.4,   5.5,  -64.192, -31.373, 999.0, 999.0,  4321.6,  1.0,  1.0,  1.0,  1.0,  1.0, 99.0
 726.6,  600.0,   4.5, -28.9,   6.7,    6.9,   -2.1,   7.2, 286.6,   4.5,  -64.191, -31.373, 999.0, 999.0,  4389.6,  1.0,  1.0,  1.0,  1.0,  1.0, 99.0
 739.7,  595.0,   3.8, -28.7,   7.2,    6.6,   -1.6,   6.8, 283.7,   4.5,  -64.190, -31.373, 999.0, 999.0,  4457.7,  1.0,  1.0,  1.0,  1.0,  1.0, 99.0
 752.5,  590.0,   3.2, -27.3,   8.5,    5.8,   -0.7,   5.8, 276.7,   5.7,  -64.189, -31.373, 999.0, 999.0,  4525.8,  1.0,  1.0,  1.0,  1.0,  1.0, 99.0
 764.0,  585.0,   2.6, -27.6,   8.7,    5.2,   -0.7,   5.2, 277.7,   7.5,  -64.188, -31.373, 999.0, 999.0,  4594.0,  1.0,  1.0,  1.0,  1.0,  1.0, 99.0
 774.4,  580.0,   2.0, -27.6,   9.0,    5.4,   -0.8,   5.5, 278.6,   7.0,  -64.188, -31.373, 999.0, 999.0,  4663.8,  1.0,  1.0,  1.0,  1.0,  1.0, 99.0
 786.5,  575.0,   1.3, -27.5,   9.6,    4.8,   -1.5,   5.0, 287.0,   6.0,  -64.187, -31.374, 999.0, 999.0,  4733.2,  1.0,  1.0,  1.0,  1.0,  1.0, 99.0
 797.3,  570.0,   0.7, -27.8,   9.7,    4.6,   -2.4,   5.2, 297.0,   5.5,  -64.186, -31.374, 999.0, 999.0,  4803.9,  1.0,  1.0,  1.0,  1.0,  1.0, 99.0
 811.3,  565.0,   0.0, -26.7,  11.4,    4.5,   -2.2,   5.0, 296.2,   4.0,  -64.186, -31.374, 999.0, 999.0,  4874.3,  1.0,  1.0,  1.0,  1.0,  1.0, 99.0
 824.7,  560.0,  -0.6, -26.5,  12.1,    4.4,   -1.1,   4.5, 284.3,   5.5,  -64.185, -31.374, 999.0, 999.0,  4945.1,  1.0,  1.0,  1.0,  1.0,  1.0, 99.0
 837.5,  555.0,  -1.3, -26.4,  12.8,    4.5,   -0.6,   4.5, 278.0,   6.0,  -64.185, -31.374, 999.0, 999.0,  5016.0,  1.0,  1.0,  1.0,  1.0,  1.0, 99.0
 851.7,  550.0,  -2.0, -26.3,  13.6,    4.5,   -0.2,   4.5, 272.3,   4.5,  -64.184, -31.374, 999.0, 999.0,  5088.5,  1.0,  1.0,  1.0,  1.0,  1.0, 99.0
 864.4,  545.0,  -2.7, -26.2,  14.4,    5.0,    0.5,   5.0, 263.9,   3.5,  -64.183, -31.374, 999.0, 999.0,  5161.4,  1.0,  1.0,  1.0,  1.0,  1.0, 99.0
 878.0,  540.0,  -3.3, -26.7,  14.4,    5.7,    0.4,   5.7, 266.0,   6.0,  -64.183, -31.374, 999.0, 999.0,  5234.0,  1.0,  1.0,  1.0,  1.0,  1.0, 99.0
 891.0,  535.0,  -4.0, -26.5,  15.4,    7.0,    0.1,   7.0, 269.2,   6.0,  -64.182, -31.374, 999.0, 999.0,  5307.0,  1.0,  1.0,  1.0,  1.0,  1.0, 99.0
 904.0,  530.0,  -4.6, -24.1,  20.2,    7.5,    0.3,   7.5, 267.7,   5.5,  -64.181, -31.374, 999.0, 999.0,  5381.0,  1.0,  1.0,  1.0,  1.0,  1.0, 99.0
 918.5,  525.0,  -5.3, -23.2,  23.1,    8.2,    0.3,   8.2, 267.9,   5.5,  -64.180, -31.374, 999.0, 999.0,  5455.8,  1.0,  1.0,  1.0,  1.0,  1.0, 99.0
 932.8,  520.0,  -6.1, -23.1,  24.8,    8.5,    0.4,   8.5, 267.0,   6.0,  -64.178, -31.374, 999.0, 999.0,  5530.5,  1.0,  1.0,  1.0,  1.0,  1.0, 99.0
 946.4,  515.0,  -6.8, -22.4,  27.7,    8.9,    0.8,   9.0, 265.1,   4.0,  -64.177, -31.374, 999.0, 999.0,  5606.6,  1.0,  1.0,  1.0,  1.0,  1.0, 99.0
 960.2,  510.0,  -7.5, -20.9,  33.4,   10.1,    0.0,  10.1, 270.1,   6.5,  -64.176, -31.374, 999.0, 999.0,  5682.4,  1.0,  1.0,  1.0,  1.0,  1.0, 99.0
 974.8,  505.0,  -8.2, -20.9,  35.3,   10.5,   -0.9,  10.5, 274.9,   6.0,  -64.174, -31.374, 999.0, 999.0,  5758.5,  1.0,  1.0,  1.0,  1.0,  1.0, 99.0
 988.7,  500.0,  -8.8, -23.3,  29.9,    9.8,   -1.1,   9.8, 276.6,   6.4,  -64.172, -31.374, 999.0, 999.0,  5836.0,  1.0,  1.0,  1.0,  1.0,  1.0, 99.0
1002.0,  495.0,  -9.3, -26.6,  23.2,    9.7,   -1.0,   9.8, 275.9,   5.0,  -64.171, -31.374, 999.0, 999.0,  5914.0,  1.0,  1.0,  1.0,  1.0,  1.0, 99.0
1016.7,  490.0,  -9.9, -28.3,  20.6,   10.1,   -0.3,  10.1, 271.9,   7.0,  -64.170, -31.375, 999.0, 999.0,  5991.7,  1.0,  1.0,  1.0,  1.0,  1.0, 99.0
1031.5,  485.0, -10.4, -31.9,  15.4,   10.6,    0.9,  10.6, 265.1,   6.0,  -64.168, -31.374, 999.0, 999.0,  6070.0,  1.0,  1.0,  1.0,  1.0,  1.0, 99.0
1047.4,  480.0, -11.0, -32.8,  14.7,   10.8,    0.8,  10.8, 265.8,   5.7,  -64.166, -31.374, 999.0, 999.0,  6150.8,  1.0,  1.0,  1.0,  1.0,  1.0, 99.0
1062.3,  475.0, -11.6, -32.0,  16.7,   10.5,    0.0,  10.5, 270.0,   5.0,  -64.165, -31.374, 999.0, 999.0,  6231.4,  1.0,  1.0,  1.0,  1.0,  1.0, 99.0
1076.8,  470.0, -12.3, -33.4,  15.5,    9.4,    0.0,   9.4, 270.0,   6.0,  -64.163, -31.374, 999.0, 999.0,  6311.5,  1.0,  1.0,  1.0,  1.0,  1.0, 99.0
1090.9,  465.0, -12.9, -37.9,  10.4,    9.0,   -0.3,   9.0, 271.9,   6.3,  -64.162, -31.374, 999.0, 999.0,  6393.2,  1.0,  1.0,  1.0,  1.0,  1.0, 99.0
1104.8,  460.0, -13.6, -39.9,   8.9,    9.5,   -0.6,   9.5, 273.7,   4.5,  -64.160, -31.374, 999.0, 999.0,  6475.6,  1.0,  1.0,  1.0,  1.0,  1.0, 99.0
1120.7,  455.0, -14.2, -41.0,   8.4,    8.8,    0.0,   8.8, 270.0,   5.0,  -64.159, -31.374, 999.0, 999.0,  6558.3,  1.0,  1.0,  1.0,  1.0,  1.0, 99.0
1134.8,  450.0, -14.9, -41.4,   8.5,    8.8,   -0.1,   8.8, 270.5,   6.5,  -64.158, -31.374, 999.0, 999.0,  6642.9,  1.0,  1.0,  1.0,  1.0,  1.0, 99.0
1150.0,  445.0, -15.7, -41.4,   9.1,    9.2,    0.0,   9.2, 270.0,   5.0,  -64.156, -31.374, 999.0, 999.0,  6726.0,  1.0,  1.0,  1.0,  1.0,  1.0, 99.0
1166.5,  440.0, -16.4, -40.7,  10.3,    9.7,    1.5,   9.8, 261.2,   7.0,  -64.155, -31.374, 999.0, 999.0,  6811.5,  1.0,  1.0,  1.0,  1.0,  1.0, 99.0
1181.8,  435.0, -17.3, -40.2,  11.8,   10.8,    1.9,  10.9, 259.8,   5.0,  -64.153, -31.374, 999.0, 999.0,  6896.8,  1.0,  1.0,  1.0,  1.0,  1.0, 99.0
1198.9,  430.0, -18.2, -39.7,  13.2,   10.6,    2.3,  10.8, 257.8,   5.5,  -64.151, -31.374, 999.0, 999.0,  6983.2,  1.0,  1.0,  1.0,  1.0,  1.0, 99.0
1216.8,  425.0, -19.0, -39.7,  14.3,   11.5,    2.8,  11.8, 256.5,   4.0,  -64.149, -31.373, 999.0, 999.0,  7070.2,  1.0,  1.0,  1.0,  1.0,  1.0, 99.0
1234.0,  420.0, -19.8, -39.2,  16.1,   12.9,    3.0,  13.2, 256.9,   4.5,  -64.147, -31.373, 999.0, 999.0,  7159.0,  1.0,  1.0,  1.0,  1.0,  1.0, 99.0
1250.9,  415.0, -20.5, -39.0,  17.5,   13.6,    2.6,  13.8, 259.0,   6.5,  -64.144, -31.372, 999.0, 999.0,  7246.6,  1.0,  1.0,  1.0,  1.0,  1.0, 99.0
1268.0,  410.0, -21.3, -39.3,  18.2,   15.3,    1.6,  15.4, 264.0,   6.0,  -64.142, -31.372, 999.0, 999.0,  7337.0,  2.0,  2.0,  2.0,  1.0,  1.0, 99.0
1284.6,  405.0, -22.1, -39.9,  18.2,   14.8,    1.6,  14.9, 264.0,   7.0,  -64.139, -31.372, 999.0, 999.0,  7427.0,  1.0,  1.0,  1.0,  1.0,  1.0, 99.0
1303.2,  400.0, -23.0, -40.4,  18.7,   15.0,    1.6,  15.0, 263.9,   5.0,  -64.136, -31.371, 999.0, 999.0,  7518.0,  1.0,  1.0,  1.0,  1.0,  1.0, 99.0
1320.9,  395.0, -23.8, -40.8,  19.4,   15.8,    1.0,  15.8, 266.5,   4.8,  -64.133, -31.371, 999.0, 999.0,  7609.6,  1.0,  1.0,  1.0,  1.0,  1.0, 99.0
1340.3,  390.0, -24.7, -40.9,  20.8,   15.6,    0.0,  15.6, 270.0,   4.2,  -64.130, -31.371, 999.0, 999.0,  7703.6,  1.0,  1.0,  1.0,  1.0,  1.0, 99.0
1360.0,  385.0, -25.5, -41.2,  21.6,   16.3,    0.0,  16.3, 270.0,   4.0,  -64.127, -31.371, 999.0, 999.0,  7796.0,  1.0,  1.0,  1.0,  1.0,  1.0, 99.0
1381.6,  380.0, -26.4, -41.5,  22.7,   16.4,   -0.3,  16.4, 271.0,   4.8,  -64.123, -31.371, 999.0, 999.0,  7890.9,  1.0,  1.0,  1.0,  1.0,  1.0, 99.0
1403.5,  375.0, -27.4, -41.6,  24.6,   16.6,   -0.4,  16.6, 271.3,   4.5,  -64.119, -31.371, 999.0, 999.0,  7987.8,  1.0,  1.0,  1.0,  1.0,  1.0, 99.0
1424.0,  370.0, -28.3, -42.2,  25.1,   17.3,    0.6,  17.3, 268.0,   4.5,  -64.115, -31.371, 999.0, 999.0,  8082.0,  1.0,  1.0,  1.0,  1.0,  1.0, 99.0
1445.2,  365.0, -28.8, -43.9,  22.0,   17.8,    1.2,  17.8, 266.1,   4.0,  -64.111, -31.371, 999.0, 999.0,  8180.8,  1.0,  1.0,  1.0,  1.0,  1.0, 99.0
1464.5,  360.0, -29.3, -46.1,  18.0,   17.9,    2.5,  18.0, 262.0,   4.5,  -64.108, -31.371, 999.0, 999.0,  8278.3,  1.0,  1.0,  1.0,  1.0,  1.0, 99.0
1484.3,  355.0, -29.8, -47.7,  15.9,   17.9,    3.2,  18.2, 259.9,   6.2,  -64.104, -31.370, 999.0, 999.0,  8379.4,  1.0,  1.0,  1.0,  1.0,  1.0, 99.0
1505.5,  350.0, -30.3, -48.6,  15.1,   19.9,    3.5,  20.2, 260.0,   4.0,  -64.100, -31.370, 999.0, 999.0,  8480.0,  1.0,  1.0,  1.0,  1.0,  1.0, 99.0
1523.7,  345.0, -30.7, -50.5,  12.5,   22.3,    3.9,  22.7, 260.1,   6.0,  -64.096, -31.369, 999.0, 999.0,  8582.0,  1.0,  1.0,  1.0,  1.0,  1.0, 99.0
1545.6,  340.0, -30.8, -53.4,   9.0,   24.0,    3.4,  24.2, 261.9,   4.5,  -64.091, -31.368, 999.0, 999.0,  8685.2,  1.0,  1.0,  1.0,  1.0,  1.0, 99.0
1566.4,  335.0, -31.5, -54.8,   8.2,   24.1,    2.5,  24.2, 264.1,   5.0,  -64.086, -31.368, 999.0, 999.0,  8791.0,  1.0,  1.0,  1.0,  1.0,  1.0, 99.0
1587.6,  330.0, -32.0, -56.9,   6.6,   23.1,    2.8,  23.3, 263.0,   5.5,  -64.080, -31.367, 999.0, 999.0,  8897.8,  1.0,  1.0,  1.0,  1.0,  1.0, 99.0
1608.3,  325.0, -32.6, -57.3,   6.7,   24.0,    5.2,  24.5, 257.8,   6.0,  -64.075, -31.367, 999.0, 999.0,  9005.0,  1.0,  1.0,  1.0,  1.0,  1.0, 99.0
1628.0,  320.0, -33.4, -57.0,   7.5,   23.6,    6.8,  24.6, 253.9,   5.5,  -64.070, -31.365, 999.0, 999.0,  9113.0,  1.0,  1.0,  1.0,  1.0,  1.0, 99.0
1650.5,  315.0, -34.0, -57.2,   7.8,   24.8,    6.5,  25.6, 255.3,   4.5,  -64.065, -31.364, 999.0, 999.0,  9224.3,  1.0,  1.0,  1.0,  1.0,  1.0, 99.0
1671.3,  310.0, -35.0, -58.3,   7.5,   24.9,    6.2,  25.7, 256.0,   6.3,  -64.059, -31.363, 999.0, 999.0,  9335.5,  1.0,  1.0,  1.0,  1.0,  1.0, 99.0
1692.8,  305.0, -35.8, -58.6,   7.8,   24.7,    5.7,  25.3, 257.0,   5.0,  -64.054, -31.362, 999.0, 999.0,  9449.0,  1.0,  1.0,  1.0,  1.0,  1.0, 99.0
