Time,Press,Temp,Dewpt,RH,Ucmp,Vcmp,spd,dir,Wcm, Lon,Lat,Ele,Azi,Alt, Qp,Qt,Qr, Qu,Qv,Qd
   0.0,  948.9,  26.8,  18.3,  59.5,    3.0,   -3.5,   4.6, 320.0, 999.0,  -64.212, -31.298, 999.0, 999.0,   490.0,  1.0,  1.0,  1.0,  1.0,  1.0,  9.0
   8.0,  945.0,  26.6,  18.1,  59.7,    2.9,   -1.6,   3.3, 298.9,   4.5,  -64.212, -31.298, 999.0, 999.0,   526.0,  1.0,  1.0,  1.0,  1.0,  1.0, 99.0
  17.3,  940.0,  26.0,  17.6,  60.0,    3.4,   -2.1,   4.0, 301.8,   5.5,  -64.212, -31.298, 999.0, 999.0,   573.0,  1.0,  1.0,  1.0,  1.0,  1.0, 99.0
  26.0,  935.0,  26.4,  17.0,  56.1,    3.9,   -3.4,   5.2, 311.1,   6.0,  -64.211, -31.298, 999.0, 999.0,   620.0,  1.0,  1.0,  1.0,  1.0,  1.0, 99.0
  34.8,  930.0,  26.4,  16.6,  54.6,    4.4,   -4.9,   6.5, 318.3,   5.0,  -64.211, -31.299, 999.0, 999.0,   667.2,  1.0,  1.0,  1.0,  1.0,  1.0, 99.0
  44.5,  925.0,  26.3,  16.5,  54.8,    4.5,   -6.2,   7.7, 324.0,   6.3,  -64.210, -31.299, 999.0, 999.0,   714.9,  1.0,  2.0,  2.0,  1.0,  1.0, 99.0
  52.2,  920.0,  26.0,  16.5,  55.8,    4.5,   -7.5,   8.8, 329.2,   5.5,  -64.210, -31.300, 999.0, 999.0,   762.9,  1.0,  1.0,  1.0,  1.0,  1.0, 99.0
  61.3,  915.0,  25.7,  16.7,  57.5,    4.3,   -8.7,   9.7, 333.6,   5.0,  -64.210, -31.300, 999.0, 999.0,   810.4,  1.0,  1.0,  1.0,  1.0,  1.0, 99.0
  69.9,  910.0,  25.3,  16.9,  59.5,    4.1,   -9.7,  10.5, 337.1,   5.7,  -64.209, -31.301, 999.0, 999.0,   859.0,  1.0,  1.0,  1.0,  1.0,  1.0, 99.0
  78.3,  905.0,  25.0,  17.1,  61.5,    4.0,  -10.4,  11.2, 339.0,   5.5,  -64.209, -31.302, 999.0, 999.0,   907.8,  1.0,  1.0,  1.0,  1.0,  1.0, 99.0
  86.5,  900.0,  24.7,  17.3,  63.3,    4.0,  -10.9,  11.6, 339.9,   6.0,  -64.209, -31.303, 999.0, 999.0,   956.9,  1.0,  1.0,  1.0,  1.0,  1.0, 99.0
  94.6,  895.0,  24.3,  17.1,  64.1,    3.8,  -11.2,  11.9, 341.2,   5.2,  -64.208, -31.303, 999.0, 999.0,  1005.0,  1.0,  1.0,  1.0,  1.0,  1.0, 99.0
 103.8,  890.0,  23.8,  17.0,  65.8,    3.7,  -11.5,  12.1, 342.2,   5.7,  -64.208, -31.304, 999.0, 999.0,  1054.4,  1.0,  1.0,  1.0,  1.0,  1.0, 99.0
 113.1,  885.0,  23.3,  17.0,  67.4,    3.7,  -11.6,  12.2, 342.2,   5.1,  -64.207, -31.305, 999.0, 999.0,  1103.3,  1.0,  1.0,  1.0,  1.0,  1.0, 99.0
 123.0,  880.0,  23.0,  16.8,  68.2,    3.7,  -11.3,  11.9, 341.9,   5.0,  -64.207, -31.307, 999.0, 999.0,  1153.0,  1.0,  1.0,  1.0,  1.0,  1.0, 99.0
 132.7,  875.0,  22.6,  16.7,  69.4,    3.8,  -10.9,  11.6, 340.6,   5.7,  -64.206, -31.307, 999.0, 999.0,  1203.0,  1.0,  1.0,  1.0,  1.0,  1.0, 99.0
 141.5,  870.0,  22.1,  16.6,  70.9,    3.9,  -10.6,  11.3, 339.8,   5.7,  -64.206, -31.308, 999.0, 999.0,  1253.0,  1.0,  1.0,  1.0,  1.0,  1.0, 99.0
 150.5,  865.0,  21.8,  16.5,  72.0,    3.8,  -10.3,  10.9, 339.8,   5.5,  -64.206, -31.309, 999.0, 999.0,  1303.7,  1.0,  1.0,  1.0,  1.0,  1.0, 99.0
 158.9,  860.0,  21.4,  16.3,  72.6,    3.6,  -10.0,  10.6, 340.2,   5.4,  -64.205, -31.310, 999.0, 999.0,  1353.4,  1.0,  1.0,  1.0,  1.0,  1.0, 99.0
 169.1,  855.0,  20.9,  16.2,  74.5,    2.9,   -9.9,  10.3, 343.5,   5.2,  -64.205, -31.311, 999.0, 999.0,  1404.0,  1.0,  1.0,  1.0,  1.0,  1.0, 99.0
 180.0,  850.0,  20.4,  16.1,  76.5,    2.2,   -9.7,   9.9, 347.2,   4.0,  -64.205, -31.312, 999.0, 999.0,  1454.0,  1.0,  1.0,  1.0,  1.0,  1.0, 99.0
 189.3,  845.0,  20.0,  15.9,  77.0,    1.9,  -10.2,  10.3, 349.6,   5.7,  -64.205, -31.313, 999.0, 999.0,  1506.0,  1.0,  1.0,  1.0,  1.0,  1.0, 99.0
 199.3,  840.0,  19.8,  15.5,  76.1,    1.3,  -10.7,  10.8, 353.1,   4.0,  -64.204, -31.314, 999.0, 999.0,  1557.0,  1.0,  1.0,  1.0,  1.0,  1.0, 99.0
 209.8,  835.0,  19.5,  14.4,  72.2,    0.8,  -11.7,  11.7, 356.0,   5.0,  -64.204, -31.315, 999.0, 999.0,  1609.0,  1.0,  1.0,  1.0,  1.0,  1.0, 99.0
 220.0,  830.0,  19.6,  12.1,  62.0,    0.2,  -11.5,  11.5, 359.0,   4.0,  -64.204, -31.316, 999.0, 999.0,  1661.0,  1.0,  1.0,  1.0,  1.0,  1.0, 99.0
 231.0,  825.0,  19.3,  12.9,  66.6,   -0.5,  -10.6,  10.6,   2.4,   5.0,  -64.204, -31.317, 999.0, 999.0,  1713.0,  2.0,  2.0,  2.0,  1.0,  1.0, 99.0
 240.7,  820.0,  18.5,  14.9,  79.5,   -0.2,   -9.6,   9.6,   1.2,   6.0,  -64.204, -31.318, 999.0, 999.0,  1765.4,  2.0,  2.0,  2.0,  1.0,  1.0, 99.0
 250.0,  815.0,  18.1,  15.0,  82.3,    0.0,   -9.5,   9.5,   0.0,   6.0,  -64.204, -31.319, 999.0, 999.0,  1818.0,  2.0,  2.0,  2.0,  1.0,  1.0, 99.0
 260.2,  810.0,  17.7,  15.1,  84.9,   -0.2,   -9.1,   9.1,   1.3,   5.0,  -64.204, -31.320, 999.0, 999.0,  1870.1,  1.0,  1.0,  1.0,  1.0,  1.0, 99.0
 271.0,  805.0,  18.0,  15.1,  83.0,   -0.2,   -9.0,   9.0,   1.5,   6.0,  -64.204, -31.321, 999.0, 999.0,  1924.0,  1.0,  1.0,  1.0,  1.0,  1.0, 99.0
 281.0,  800.0,  18.9,  14.5,  75.4,   -0.2,   -8.5,   8.5,   1.4,   5.0,  -64.204, -31.321, 999.0, 999.0,  1977.0,  1.0,  1.0,  1.0,  1.0,  1.0, 99.0
 290.4,  795.0,  19.6,  13.1,  66.0,    0.0,   -8.5,   8.5,   0.0,   5.0,  -64.204, -31.322, 999.0, 999.0,  2031.2,  1.0,  1.0,  1.0,  1.0,  1.0, 99.0
 300.1,  790.0,  20.0,  10.7,  55.1,    0.3,   -8.2,   8.2, 357.9,   5.8,  -64.204, -31.323, 999.0, 999.0,  2085.8,  1.0,  1.0,  1.0,  1.0,  1.0, 99.0
 311.5,  785.0,  20.2,   8.7,  47.5,    1.4,   -7.5,   7.6, 349.1,   4.5,  -64.204, -31.324, 999.0, 999.0,  2140.7,  1.0,  1.0,  1.0,  1.0,  1.0, 99.0
 324.5,  780.0,  20.4,   5.1,  36.6,    2.4,   -6.1,   6.6, 338.3,   5.0,  -64.204, -31.324, 999.0, 999.0,  2195.5,  1.0,  1.0,  1.0,  1.0,  1.0, 99.0
 334.5,  775.0,  20.5,   2.9,  31.2,    2.9,   -5.2,   6.0, 330.6,   6.5,  -64.204, -31.325, 999.0, 999.0,  2251.2,  1.0,  1.0,  1.0,  1.0,  1.0, 99.0
 345.7,  770.0,  20.2,   1.2,  28.2,    3.4,   -5.0,   6.0, 325.9,   4.0,  -64.203, -31.325, 999.0, 999.0,  2307.0,  1.0,  1.0,  1.0,  1.0,  1.0, 99.0
 357.4,  765.0,  19.9,   0.6,  27.3,    4.2,   -4.5,   6.1, 317.2,   5.5,  -64.203, -31.326, 999.0, 999.0,  2363.6,  1.0,  1.0,  1.0,  1.0,  1.0, 99.0
 367.3,  760.0,  19.7,   0.1,  26.9,    4.0,   -4.5,   6.0, 318.6,   5.5,  -64.202, -31.326, 999.0, 999.0,  2419.3,  1.0,  1.0,  1.0,  1.0,  1.0, 99.0
 379.3,  755.0,  19.8,  -4.8,  18.6,    3.8,   -4.3,   5.8, 318.3,   4.5,  -64.202, -31.327, 999.0, 999.0,  2476.0,  1.0,  1.0,  1.0,  1.0,  1.0, 99.0
 389.1,  750.0,  19.5,  -5.3,  18.2,    3.9,   -4.3,   5.8, 317.8,   5.0,  -64.201, -31.327, 999.0, 999.0,  2533.6,  1.0,  1.0,  1.0,  1.0,  1.0, 99.0
 400.5,  745.0,  19.1,  -5.7,  18.1,    4.6,   -4.3,   6.3, 312.7,   4.5,  -64.201, -31.328, 999.0, 999.0,  2591.3,  1.0,  1.0,  1.0,  1.0,  1.0, 99.0
 410.7,  740.0,  18.4,  -2.1,  24.6,    5.6,   -4.6,   7.2, 309.2,   5.6,  -64.200, -31.328, 999.0, 999.0,  2648.9,  2.0,  1.0,  1.0,  1.0,  1.0, 99.0
 421.2,  735.0,  17.7,   0.2,  30.6,    6.2,   -4.8,   7.9, 307.7,   6.5,  -64.200, -31.328, 999.0, 999.0,  2706.8,  2.0,  1.0,  1.0,  1.0,  1.0, 99.0
 430.0,  730.0,  17.2,   0.6,  32.5,    7.0,   -4.2,   8.2, 301.0,   7.5,  -64.199, -31.329, 999.0, 999.0,  2764.0,  1.0,  1.0,  1.0,  1.0,  1.0, 99.0
 441.8,  725.0,  16.6,   0.6,  33.8,    6.9,   -3.1,   7.6, 294.3,   4.7,  -64.198, -31.329, 999.0, 999.0,  2823.2,  1.0,  1.0,  1.0,  1.0,  1.0, 99.0
 453.9,  720.0,  16.1,   0.1,  33.7,    6.1,   -3.5,   7.0, 299.8,   6.3,  -64.197, -31.329, 999.0, 999.0,  2881.9,  1.0,  1.0,  1.0,  1.0,  1.0, 99.0
 464.2,  715.0,  15.5,  -0.7,  33.1,    5.4,   -4.6,   7.1, 310.4,   5.5,  -64.197, -31.330, 999.0, 999.0,  2941.2,  1.0,  1.0,  1.0,  1.0,  1.0, 99.0
 475.1,  710.0,  15.0,  -1.2,  32.8,    5.5,   -4.5,   7.1, 309.3,   5.3,  -64.196, -31.331, 999.0, 999.0,  3000.4,  1.0,  1.0,  1.0,  1.0,  1.0, 99.0
 486.2,  705.0,  14.9,  -4.4,  26.1,    6.1,   -3.8,   7.2, 301.9,   6.5,  -64.195, -31.331, 999.0, 999.0,  3061.2,  1.0,  1.0,  1.0,  1.0,  1.0, 99.0
 497.3,  700.0,  14.8,  -8.9,  18.6,    6.0,   -3.0,   6.7, 296.6,   5.0,  -64.195, -31.331, 999.0, 999.0,  3120.3,  1.0,  1.0,  1.0,  1.0,  1.0, 99.0
 507.6,  695.0,  14.8, -14.5,  11.9,    5.4,   -3.6,   6.5, 303.6,   6.0,  -64.194, -31.332, 999.0, 999.0,  3181.3,  1.0,  1.0,  1.0,  1.0,  1.0, 99.0
 519.3,  690.0,  14.6, -19.5,   7.9,    4.6,   -3.9,   6.0, 310.6,   5.0,  -64.193, -31.332, 999.0, 999.0,  3242.2,  1.0,  1.0,  1.0,  1.0,  1.0, 99.0
 530.8,  685.0,  14.2, -22.1,   6.4,    4.0,   -4.8,   6.3, 320.1,   5.4,  -64.193, -31.332, 999.0, 999.0,  3303.2,  1.0,  1.0,  1.0,  1.0,  1.0, 99.0
 542.6,  680.0,  14.0, -24.7,   5.2,    4.6,   -4.7,   6.6, 315.4,   6.5,  -64.193, -31.333, 999.0, 999.0,  3364.9,  1.0,  1.0,  1.0,  1.0,  1.0, 99.0
 554.2,  675.0,  13.8, -29.7,   3.3,    4.7,   -3.9,   6.1, 309.6,   7.5,  -64.192, -31.333, 999.0, 999.0,  3427.3,  1.0,  1.0,  1.0,  1.0,  1.0, 99.0
 565.8,  670.0,  13.4, -27.0,   4.4,    4.5,   -3.2,   5.5, 305.5,   5.0,  -64.191, -31.334, 999.0, 999.0,  3488.8,  1.0,  1.0,  1.0,  1.0,  1.0, 99.0
 577.1,  665.0,  12.8, -25.2,   5.4,    3.7,   -3.7,   5.2, 315.3,   5.8,  -64.191, -31.334, 999.0, 999.0,  3552.0,  1.0,  1.0,  1.0,  1.0,  1.0, 99.0
 589.2,  660.0,  12.3, -23.3,   6.6,    4.1,   -4.3,   5.9, 316.0,   5.3,  -64.190, -31.335, 999.0, 999.0,  3615.2,  1.0,  1.0,  1.0,  1.0,  1.0, 99.0
 602.2,  655.0,  11.8, -22.0,   7.7,    4.2,   -3.5,   5.5, 309.5,   5.0,  -64.190, -31.335, 999.0, 999.0,  3678.9,  1.0,  1.0,  1.0,  1.0,  1.0, 99.0
 615.4,  650.0,  11.2, -19.2,  10.1,    5.0,   -3.3,   6.0, 303.5,   4.2,  -64.189, -31.335, 999.0, 999.0,  3742.5,  1.0,  1.0,  1.0,  1.0,  1.0, 99.0
 627.8,  645.0,  10.6, -18.8,  10.9,    5.4,   -3.0,   6.2, 299.1,   6.0,  -64.188, -31.336, 999.0, 999.0,  3806.7,  2.0,  1.0,  1.0,  1.0,  1.0, 99.0
 639.5,  640.0,   9.9, -19.1,  11.2,    5.7,   -2.9,   6.4, 297.2,   7.5,  -64.188, -31.336, 999.0, 999.0,  3871.9,  1.0,  1.0,  1.0,  1.0,  1.0, 99.0
 651.8,  635.0,   9.4, -19.0,  11.6,    5.7,   -2.9,   6.4, 297.0,   5.5,  -64.187, -31.336, 999.0, 999.0,  3936.6,  1.0,  1.0,  1.0,  1.0,  1.0, 99.0
 664.4,  630.0,   8.8, -19.1,  12.0,    5.4,   -2.2,   5.8, 292.0,   6.0,  -64.186, -31.337, 999.0, 999.0,  4001.7,  1.0,  1.0,  1.0,  1.0,  1.0, 99.0
 674.9,  625.0,   8.2, -18.9,  12.7,    5.7,   -2.4,   6.1, 292.7,   4.5,  -64.186, -31.337, 999.0, 999.0,  4067.0,  1.0,  1.0,  1.0,  1.0,  1.0, 99.0
 688.9,  620.0,   7.6, -18.8,  13.4,    5.7,   -2.4,   6.2, 292.8,   4.3,  -64.185, -31.337, 999.0, 999.0,  4133.9,  1.0,  1.0,  1.0,  1.0,  1.0, 99.0
 702.9,  615.0,   7.0, -18.6,  14.2,    5.9,   -2.8,   6.5, 295.4,   4.6,  -64.184, -31.337, 999.0, 999.0,  4200.1,  1.0,  1.0,  1.0,  1.0,  1.0, 99.0
 717.7,  610.0,   6.2, -18.4,  15.2,    6.1,   -2.1,   6.4, 288.9,   4.5,  -64.183, -31.338, 999.0, 999.0,  4267.6,  1.0,  1.0,  1.0,  1.0,  1.0, 99.0
 729.5,  605.0,   5.6, -17.4,  17.2,    6.1,   -1.8,   6.3, 286.0,   5.0,  -64.182, -31.338, 999.0, 999.0,  4333.5,  1.0,  1.0,  1.0,  1.0,  1.0, 99.0
 740.6,  600.0,   5.0, -17.8,  17.5,    6.3,   -1.7,   6.5, 285.2,   6.0,  -64.181, -31.338, 999.0, 999.0,  4401.8,  1.0,  1.0,  1.0,  1.0,  1.0, 99.0
 754.0,  595.0,   4.4, -17.2,  19.0,    6.6,   -1.4,   6.7, 282.0,   4.5,  -64.180, -31.338, 999.0, 999.0,  4470.0,  1.0,  1.0,  1.0,  1.0,  1.0, 99.0
 768.2,  590.0,   3.7, -16.6,  21.1,    7.0,   -1.6,   7.2, 282.7,   5.9,  -64.179, -31.338, 999.0, 999.0,  4538.4,  1.0,  1.0,  1.0,  1.0,  1.0, 99.0
 780.3,  585.0,   3.0, -16.1,  23.1,    7.5,   -1.9,   7.7, 284.0,   4.0,  -64.179, -31.339, 999.0, 999.0,  4607.3,  1.0,  1.0,  1.0,  1.0,  1.0, 99.0
 792.0,  580.0,   2.4, -16.1,  24.0,    7.9,   -1.7,   8.1, 282.1,   6.0,  -64.177, -31.339, 999.0, 999.0,  4677.0,  1.0,  1.0,  1.0,  1.0,  1.0, 99.0
 804.2,  575.0,   1.8, -16.0,  25.5,    8.1,   -1.7,   8.3, 281.9,   5.6,  -64.177, -31.339, 999.0, 999.0,  4746.5,  1.0,  1.0,  1.0,  1.0,  1.0, 99.0
 817.3,  570.0,   1.2, -16.4,  25.6,    8.6,   -2.2,   8.9, 284.3,   6.4,  -64.175, -31.339, 999.0, 999.0,  4817.1,  1.0,  1.0,  1.0,  1.0,  1.0, 99.0
 830.5,  565.0,   0.7, -17.5,  24.2,    9.4,   -2.2,   9.7, 283.1,   4.9,  -64.174, -31.339, 999.0, 999.0,  4887.7,  1.0,  1.0,  1.0,  1.0,  1.0, 99.0
 846.0,  560.0,   0.5, -17.1,  25.3,   11.9,   -2.5,  12.2, 281.9,   4.5,  -64.172, -31.340, 999.0, 999.0,  4958.0,  2.0,  2.0,  2.0,  1.0,  1.0, 99.0
 859.3,  555.0,  -0.1, -17.2,  26.3,   13.6,   -1.4,  13.7, 275.9,   8.0,  -64.171, -31.340, 999.0, 999.0,  5030.7,  1.0,  1.0,  1.0,  1.0,  1.0, 99.0
 872.0,  550.0,   0.3, -21.2,  18.1,   13.3,    0.5,  13.3, 267.8,   4.5,  -64.169, -31.340, 999.0, 999.0,  5103.0,  1.0,  1.0,  1.0,  1.0,  1.0, 99.0
 887.3,  545.0,   0.6, -29.8,   8.1,   12.6,    1.2,  12.6, 264.4,   5.5,  -64.167, -31.340, 999.0, 999.0,  5176.9,  1.0,  1.0,  1.0,  1.0,  1.0, 99.0
 901.0,  540.0,   0.4, -34.9,   5.0,   12.7,    1.8,  12.8, 261.9,   5.7,  -64.165, -31.340, 999.0, 999.0,  5250.1,  1.0,  1.0,  1.0,  1.0,  1.0, 99.0
 914.7,  535.0,  -0.1, -36.0,   4.7,   11.8,    2.6,  12.1, 257.8,   5.8,  -64.163, -31.340, 999.0, 999.0,  5325.4,  1.0,  1.0,  1.0,  1.0,  1.0, 99.0
 929.6,  530.0,  -0.8, -36.5,   4.7,   10.5,    3.0,  11.0, 254.0,   4.5,  -64.161, -31.339, 999.0, 999.0,  5400.2,  1.0,  1.0,  1.0,  1.0,  1.0, 99.0
 945.0,  525.0,  -1.5, -37.1,   4.7,    9.5,    3.7,  10.1, 248.9,   4.0,  -64.160, -31.339, 999.0, 999.0,  5475.0,  1.0,  1.0,  1.0,  1.0,  1.0, 99.0
 959.3,  520.0,  -2.0, -37.8,   4.5,    8.9,    4.4,   9.9, 243.5,   5.2,  -64.158, -31.338, 999.0, 999.0,  5551.1,  1.0,  1.0,  1.0,  1.0,  1.0, 99.0
 975.2,  515.0,  -2.6, -35.8,   5.7,    9.4,    5.5,  10.8, 239.7,   3.5,  -64.157, -31.337, 999.0, 999.0,  5628.2,  1.0,  1.0,  1.0,  1.0,  1.0, 99.0
 991.3,  510.0,  -3.3, -34.1,   7.2,   10.1,    7.1,  12.4, 235.1,   5.0,  -64.155, -31.337, 999.0, 999.0,  5704.5,  1.0,  1.0,  1.0,  1.0,  1.0, 99.0
1007.0,  505.0,  -3.8, -33.0,   8.3,   10.9,    8.5,  13.8, 232.1,   4.7,  -64.153, -31.335, 999.0, 999.0,  5782.3,  1.0,  1.0,  1.0,  1.0,  1.0, 99.0
1026.4,  500.0,  -4.5, -31.8,   9.8,   12.8,    9.1,  15.7, 234.3,   3.7,  -64.151, -31.334, 999.0, 999.0,  5861.8,  1.0,  1.0,  1.0,  1.0,  1.0, 99.0
1042.7,  495.0,  -5.0, -30.8,  11.2,   14.0,    8.7,  16.5, 238.1,   5.0,  -64.149, -31.333, 999.0, 999.0,  5939.3,  2.0,  1.0,  1.0,  1.0,  1.0, 99.0
1058.3,  490.0,  -5.6, -31.0,  11.5,   15.1,    8.4,  17.3, 240.9,   4.5,  -64.146, -31.331, 999.0, 999.0,  6019.5,  1.0,  1.0,  1.0,  1.0,  1.0, 99.0
1074.0,  485.0,  -6.1, -32.3,  10.6,   15.2,    8.8,  17.6, 239.9,   4.0,  -64.144, -31.330, 999.0, 999.0,  6101.0,  2.0,  2.0,  2.0,  1.0,  1.0, 99.0
1089.9,  480.0,  -7.0, -32.7,  10.9,   15.2,    9.9,  18.2, 236.9,   5.5,  -64.141, -31.329, 999.0, 999.0,  6181.4,  1.0,  1.0,  1.0,  1.0,  1.0, 99.0
1105.6,  475.0,  -7.7, -33.2,  10.9,   15.7,   11.0,  19.2, 234.9,   4.5,  -64.138, -31.327, 999.0, 999.0,  6262.2,  2.0,  1.0,  1.0,  1.0,  1.0, 99.0
1124.3,  470.0,  -8.5, -34.5,  10.3,   15.7,   10.2,  18.7, 237.0,   5.8,  -64.136, -31.326, 999.0, 999.0,  6344.7,  1.0,  1.0,  1.0,  1.0,  1.0, 99.0
1139.1,  465.0,  -9.1, -35.4,   9.8,   15.3,    9.2,  17.9, 239.0,   5.5,  -64.133, -31.324, 999.0, 999.0,  6427.3,  1.0,  1.0,  1.0,  1.0,  1.0, 99.0
1158.5,  460.0,  -9.6, -37.2,   8.6,   15.4,    8.8,  17.8, 240.2,   7.0,  -64.130, -31.323, 999.0, 999.0,  6511.5,  1.0,  1.0,  1.0,  1.0,  1.0, 99.0
1176.9,  455.0, -10.3, -37.9,   8.4,   14.9,    7.6,  16.7, 243.1,   4.5,  -64.127, -31.321, 999.0, 999.0,  6594.1,  2.0,  2.0,  2.0,  1.0,  1.0, 99.0
1193.0,  450.0, -10.9, -39.3,   7.6,   14.3,    6.3,  15.7, 246.1,   5.1,  -64.125, -31.320, 999.0, 999.0,  6679.5,  1.0,  1.0,  1.0,  1.0,  1.0, 99.0
1209.7,  445.0, -11.6, -41.0,   6.8,   15.6,    4.6,  16.3, 253.7,   5.0,  -64.122, -31.320, 999.0, 999.0,  6765.3,  1.0,  1.0,  1.0,  1.0,  1.0, 99.0
1225.0,  440.0, -11.8, -44.2,   4.9,   16.1,    3.6,  16.5, 257.6,   7.0,  -64.119, -31.319, 999.0, 999.0,  6853.0,  1.0,  1.0,  1.0,  1.0,  1.0, 99.0
1240.0,  435.0, -12.5, -45.5,   4.5,   16.0,    2.5,  16.2, 261.0,   5.2,  -64.117, -31.319, 999.0, 999.0,  6939.3,  1.0,  1.0,  1.0,  1.0,  1.0, 99.0
1257.0,  430.0, -13.3, -46.1,   4.5,   15.0,    2.4,  15.1, 260.9,   5.0,  -64.114, -31.318, 999.0, 999.0,  7027.0,  1.0,  1.0,  1.0,  1.0,  1.0, 99.0
1274.5,  425.0, -14.2, -45.6,   5.1,   15.2,    2.7,  15.4, 259.9,   5.5,  -64.111, -31.318, 999.0, 999.0,  7116.5,  2.0,  2.0,  2.0,  1.0,  1.0, 99.0
1292.4,  420.0, -14.9, -44.0,   6.4,   15.7,    1.6,  15.8, 264.0,   4.5,  -64.108, -31.318, 999.0, 999.0,  7205.8,  1.0,  1.0,  1.0,  1.0,  1.0, 99.0
1309.7,  415.0, -15.3, -47.3,   4.6,   15.3,    0.3,  15.3, 268.9,   5.5,  -64.105, -31.318, 999.0, 999.0,  7297.2,  2.0,  2.0,  2.0,  1.0,  1.0, 99.0
1326.0,  410.0, -16.0, -46.4,   5.4,   15.7,    0.8,  15.7, 267.1,   7.0,  -64.103, -31.318, 999.0, 999.0,  7388.0,  1.0,  1.0,  1.0,  1.0,  1.0, 99.0
1340.0,  405.0, -16.7, -47.1,   5.3,   16.0,    1.1,  16.0, 266.1,   5.0,  -64.100, -31.317, 999.0, 999.0,  7479.0,  1.0,  1.0,  1.0,  1.0,  1.0, 99.0
1358.3,  400.0, -17.5, -49.2,   4.5,   16.1,    1.1,  16.1, 266.1,   5.8,  -64.097, -31.317, 999.0, 999.0,  7573.4,  1.0,  1.0,  1.0,  1.0,  1.0, 99.0
1376.0,  395.0, -18.3, -49.4,   4.7,   16.3,    1.1,  16.3, 266.1,   6.5,  -64.094, -31.317, 999.0, 999.0,  7667.0,  2.0,  1.0,  1.0,  1.0,  1.0, 99.0
1395.7,  390.0, -19.1, -50.7,   4.3,   16.7,    1.5,  16.8, 264.9,   5.8,  -64.091, -31.317, 999.0, 999.0,  7761.2,  1.0,  1.0,  1.0,  1.0,  1.0, 99.0
1411.7,  385.0, -19.7, -52.0,   3.9,   17.2,    1.8,  17.3, 264.0,   6.0,  -64.088, -31.316, 999.0, 999.0,  7858.0,  1.0,  1.0,  1.0,  1.0,  1.0, 99.0
1428.3,  380.0, -20.2, -55.2,   2.8,   17.4,    2.4,  17.6, 262.1,   6.0,  -64.085, -31.316, 999.0, 999.0,  7955.0,  1.0,  1.0,  1.0,  1.0,  1.0, 99.0
1447.0,  375.0, -20.9, -53.6,   3.6,   17.5,    2.1,  17.6, 263.2,   5.8,  -64.081, -31.316, 999.0, 999.0,  8052.2,  1.0,  1.0,  1.0,  1.0,  1.0, 99.0
1468.0,  370.0, -21.8, -53.6,   3.9,   17.2,    1.5,  17.3, 265.0,   5.0,  -64.078, -31.315, 999.0, 999.0,  8151.0,  2.0,  2.0,  2.0,  1.0,  1.0, 99.0
1489.0,  365.0, -22.8, -53.3,   4.4,   17.5,    0.9,  17.5, 267.1,   4.5,  -64.074, -31.315, 999.0, 999.0,  8251.5,  1.0,  1.0,  1.0,  1.0,  1.0, 99.0
1510.9,  360.0, -23.7, -53.3,   4.8,   17.6,   -0.4,  17.6, 271.4,   4.9,  -64.070, -31.315, 999.0, 999.0,  8352.3,  1.0,  1.0,  1.0,  1.0,  1.0, 99.0
1532.0,  355.0, -24.5, -53.3,   5.1,   17.4,   -1.5,  17.5, 274.9,   4.5,  -64.066, -31.315, 999.0, 999.0,  8454.0,  1.0,  1.0,  1.0,  1.0,  1.0, 99.0
1550.7,  350.0, -25.4, -53.4,   5.4,   17.3,   -2.9,  17.6, 279.4,   6.0,  -64.062, -31.316, 999.0, 999.0,  8557.0,  1.0,  1.0,  1.0,  1.0,  1.0, 99.0
1569.3,  345.0, -26.3, -54.3,   5.3,   17.2,   -4.5,  17.8, 284.6,   5.5,  -64.059, -31.316, 999.0, 999.0,  8660.9,  1.0,  1.0,  1.0,  1.0,  1.0, 99.0
1587.6,  340.0, -27.1, -55.6,   4.9,   17.5,   -5.7,  18.4, 288.0,   5.7,  -64.055, -31.317, 999.0, 999.0,  8766.7,  1.0,  1.0,  1.0,  1.0,  1.0, 99.0
1608.8,  335.0, -27.9, -56.5,   4.7,   16.8,   -6.0,  17.9, 289.6,   6.3,  -64.052, -31.318, 999.0, 999.0,  8872.8,  2.0,  2.0,  2.0,  1.0,  1.0, 99.0
1629.0,  330.0, -28.7, -56.6,   5.1,   17.8,   -5.8,  18.7, 288.0,   4.4,  -64.048, -31.320, 999.0, 999.0,  8980.0,  1.0,  1.0,  1.0,  1.0,  1.0, 99.0
1653.5,  325.0, -29.5, -58.4,   4.3,   18.5,   -5.4,  19.3, 286.2,   5.0,  -64.043, -31.321, 999.0, 999.0,  9089.5,  1.0,  1.0,  1.0,  1.0,  1.0, 99.0
1676.0,  320.0, -30.3, -47.3,  17.4,   18.9,   -4.7,  19.5, 284.0,   4.0,  -64.039, -31.322, 999.0, 999.0,  9199.0,  2.0,  2.0,  2.0,  1.0,  1.0, 99.0
1698.5,  315.0, -31.2, -42.8,  31.0,   19.7,   -4.5,  20.2, 282.9,   5.1,  -64.034, -31.323, 999.0, 999.0,  9311.3,  1.0,  1.0,  1.0,  1.0,  1.0, 99.0
1726.0,  310.0, -31.9, -41.3,  38.9,   21.2,   -5.3,  21.9, 284.0,   3.5,  -64.028, -31.324, 999.0, 999.0,  9426.0,  1.0,  1.0,  1.0,  1.0,  1.0, 99.0
1749.5,  305.0, -33.0, -39.7,  50.8,   22.4,   -5.7,  23.1, 284.3,   4.5,  -64.023, -31.326, 999.0, 999.0,  9539.8,  1.0,  1.0,  1.0,  1.0,  1.0, 99.0
1775.0,  300.0, -33.8, -39.7,  55.2,   23.0,   -5.3,  23.6, 283.0,   3.0,  -64.017, -31.327, 999.0, 999.0,  9655.0,  2.0,  1.0,  1.0,  1.0,  1.0, 99.0
