Time,Press,Temp,Dewpt,RH,Ucmp,Vcmp,spd,dir,Wcm, Lon,Lat,Ele,Azi,Alt, Qp,Qt,Qr, Qu,Qv,Qd
   0.0,  883.2,  26.9,  -1.3,  15.6,   -4.0,   -8.2,   9.1,  26.0,   0.0,  -64.730, -32.130, 999.0, 999.0,  1139.4,  2.0,  2.0,  2.0,  1.0,  1.0, 99.0
   5.3,  880.0,  22.4,  -3.8,  17.1,   -3.7,   -6.0,   7.1,  31.8,   6.0,  -64.730, -32.130, 999.0, 999.0,  1171.7,  2.0,  2.0,  2.0,  1.0,  1.0, 99.0
  13.2,  875.0,  21.3,  -4.1,  17.8,   -4.6,   -8.3,   9.4,  29.1,   5.8,  -64.731, -32.131, 999.0, 999.0,  1222.0,  1.0,  1.0,  1.0,  1.0,  1.0, 99.0
  21.3,  870.0,  20.8,  -4.3,  18.2,   -4.5,   -9.2,  10.3,  25.8,   5.6,  -64.731, -32.131, 999.0, 999.0,  1272.3,  1.0,  1.0,  1.0,  1.0,  1.0, 99.0
  30.0,  865.0,  20.3,  -4.2,  18.8,   -3.9,   -9.2,  10.0,  23.0,   5.9,  -64.731, -32.132, 999.0, 999.0,  1320.4,  1.0,  1.0,  1.0,  1.0,  1.0, 99.0
  42.0,  860.0,  19.8,  -4.4,  19.1,   -3.5,   -8.3,   9.0,  22.9,   5.3,  -64.732, -32.133, 999.0, 999.0,  1368.7,  1.0,  1.0,  1.0,  1.0,  1.0, 99.0
  52.8,  855.0,  19.2,  -4.5,  19.7,   -3.5,   -7.5,   8.3,  25.0,   4.1,  -64.732, -32.134, 999.0, 999.0,  1419.4,  1.0,  1.0,  1.0,  1.0,  1.0, 99.0
  65.0,  850.0,  18.7,  -4.7,  20.1,   -3.5,   -7.6,   8.4,  24.7,   4.0,  -64.733, -32.135, 999.0, 999.0,  1470.0,  1.0,  1.0,  1.0,  1.0,  1.0, 99.0
  77.0,  845.0,  18.3,  -4.7,  20.5,   -3.6,   -7.8,   8.6,  24.8,   4.2,  -64.733, -32.136, 999.0, 999.0,  1521.6,  1.0,  1.0,  1.0,  1.0,  1.0, 99.0
  90.0,  840.0,  17.9,  -4.7,  21.0,   -3.3,   -8.3,   8.9,  21.7,   3.3,  -64.734, -32.136, 999.0, 999.0,  1570.9,  1.0,  1.0,  1.0,  1.0,  1.0, 99.0
 104.5,  835.0,  17.5,  -4.9,  21.4,   -2.4,   -8.6,   8.9,  15.6,   3.1,  -64.734, -32.138, 999.0, 999.0,  1621.2,  1.0,  1.0,  1.0,  1.0,  1.0, 99.0
 118.7,  830.0,  16.9,  -5.0,  21.9,   -2.0,   -8.6,   8.8,  13.1,   4.2,  -64.734, -32.139, 999.0, 999.0,  1671.1,  1.0,  1.0,  1.0,  1.0,  1.0, 99.0
 128.8,  825.0,  16.5,  -5.1,  22.3,   -2.5,   -8.6,   9.0,  16.2,   4.4,  -64.735, -32.139, 999.0, 999.0,  1724.6,  1.0,  1.0,  1.0,  1.0,  1.0, 99.0
 137.8,  820.0,  16.0,  -5.2,  22.9,   -2.7,   -8.3,   8.7,  18.0,   5.8,  -64.735, -32.140, 999.0, 999.0,  1776.0,  1.0,  1.0,  1.0,  1.0,  1.0, 99.0
 146.8,  815.0,  15.4,  -5.3,  23.6,   -2.5,   -7.7,   8.1,  18.0,   5.6,  -64.735, -32.141, 999.0, 999.0,  1829.3,  1.0,  1.0,  1.0,  1.0,  1.0, 99.0
 155.6,  810.0,  14.9,  -5.3,  24.3,   -1.8,   -7.1,   7.3,  14.5,   6.4,  -64.735, -32.141, 999.0, 999.0,  1881.9,  1.0,  1.0,  1.0,  1.0,  1.0, 99.0
 165.7,  805.0,  14.4,  -5.2,  25.3,   -0.8,   -7.1,   7.1,   6.1,   4.3,  -64.735, -32.142, 999.0, 999.0,  1932.0,  1.0,  1.0,  1.0,  1.0,  1.0, 99.0
 177.4,  800.0,  14.0,  -5.3,  25.9,    0.3,   -7.5,   7.5, 357.4,   5.4,  -64.736, -32.143, 999.0, 999.0,  1984.6,  1.0,  1.0,  1.0,  1.0,  1.0, 99.0
 188.4,  795.0,  13.6,  -5.5,  26.1,    0.8,   -7.9,   7.9, 354.2,   5.6,  -64.735, -32.143, 999.0, 999.0,  2037.8,  1.0,  1.0,  1.0,  1.0,  1.0, 99.0
 199.3,  790.0,  13.3,  -5.5,  26.7,    1.0,   -8.4,   8.5, 353.2,   5.1,  -64.735, -32.144, 999.0, 999.0,  2090.4,  1.0,  1.0,  1.0,  1.0,  1.0, 99.0
 210.6,  785.0,  12.6,  -5.8,  27.3,    0.9,   -8.8,   8.9, 354.2,   4.6,  -64.735, -32.145, 999.0, 999.0,  2143.4,  1.0,  1.0,  1.0,  1.0,  1.0, 99.0
 220.8,  780.0,  12.1,  -5.8,  28.1,    1.1,   -8.1,   8.2, 352.4,   3.8,  -64.735, -32.146, 999.0, 999.0,  2197.0,  1.0,  1.0,  1.0,  1.0,  1.0, 99.0
 230.8,  775.0,  11.6,  -5.7,  29.4,    1.8,   -7.1,   7.3, 346.1,   5.1,  -64.735, -32.147, 999.0, 999.0,  2250.8,  1.0,  1.0,  1.0,  1.0,  1.0, 99.0
 240.2,  770.0,  11.1,  -5.6,  30.6,    2.7,   -6.7,   7.2, 337.8,   7.4,  -64.735, -32.147, 999.0, 999.0,  2305.0,  1.0,  1.0,  1.0,  1.0,  1.0, 99.0
 250.6,  765.0,  10.6,  -5.7,  31.2,    3.5,   -7.2,   8.0, 333.9,   4.3,  -64.734, -32.148, 999.0, 999.0,  2357.9,  1.0,  1.0,  1.0,  1.0,  1.0, 99.0
 261.7,  760.0,  10.2,  -6.0,  31.5,    3.7,   -8.0,   8.8, 335.1,   6.0,  -64.734, -32.149, 999.0, 999.0,  2413.9,  1.0,  1.0,  1.0,  1.0,  1.0, 99.0
 272.2,  755.0,   9.6,  -6.1,  32.6,    4.1,   -7.8,   8.8, 332.2,   6.4,  -64.734, -32.149, 999.0, 999.0,  2469.1,  1.0,  1.0,  1.0,  1.0,  1.0, 99.0
 282.0,  750.0,   9.1,  -6.0,  33.8,    4.5,   -7.2,   8.5, 328.0,   4.6,  -64.733, -32.150, 999.0, 999.0,  2523.4,  2.0,  1.0,  1.0,  1.0,  1.0, 99.0
 292.3,  745.0,   8.7,  -6.4,  33.7,    4.7,   -6.7,   8.2, 324.7,   3.5,  -64.733, -32.151, 999.0, 999.0,  2579.7,  1.0,  1.0,  1.0,  1.0,  1.0, 99.0
 303.4,  740.0,   8.2,  -6.6,  34.4,    4.7,   -6.0,   7.7, 321.8,   5.8,  -64.732, -32.151, 999.0, 999.0,  2636.8,  1.0,  1.0,  1.0,  1.0,  1.0, 99.0
 314.0,  735.0,   8.0,  -7.9,  31.4,    4.6,   -5.7,   7.3, 321.1,   5.7,  -64.732, -32.152, 999.0, 999.0,  2691.5,  1.0,  1.0,  1.0,  1.0,  1.0, 99.0
 326.0,  730.0,   7.5,  -8.3,  31.6,    4.5,   -5.1,   6.8, 318.6,   3.8,  -64.731, -32.152, 999.0, 999.0,  2749.1,  2.0,  1.0,  1.0,  1.0,  1.0, 99.0
 338.0,  725.0,   6.9,  -8.3,  32.9,    4.2,   -4.3,   6.0, 315.7,   6.0,  -64.730, -32.153, 999.0, 999.0,  2803.8,  1.0,  1.0,  1.0,  1.0,  1.0, 99.0
 348.4,  720.0,   6.9, -10.9,  27.0,    3.0,   -3.9,   4.9, 322.2,   5.5,  -64.730, -32.153, 999.0, 999.0,  2860.5,  1.0,  1.0,  1.0,  1.0,  1.0, 99.0
 359.7,  715.0,   7.8, -19.0,  13.0,    1.5,   -3.6,   3.9, 337.2,   4.0,  -64.730, -32.154, 999.0, 999.0,  2918.9,  1.0,  1.0,  1.0,  1.0,  1.0, 99.0
 373.0,  710.0,   7.9, -25.8,   7.1,    0.4,   -3.8,   3.8, 354.0,   4.8,  -64.730, -32.154, 999.0, 999.0,  2975.7,  1.0,  1.0,  1.0,  1.0,  1.0, 99.0
 385.5,  705.0,   7.6, -31.2,   4.4,   -0.1,   -4.1,   4.1,   1.4,   6.1,  -64.730, -32.155, 999.0, 999.0,  3032.4,  1.0,  1.0,  1.0,  1.0,  1.0, 99.0
 396.7,  700.0,   8.0, -26.2,   6.8,   -0.2,   -3.9,   3.9,   2.9,   4.4,  -64.730, -32.155, 999.0, 999.0,  3091.2,  1.0,  1.0,  1.0,  1.0,  1.0, 99.0
 409.0,  695.0,   7.4, -26.0,   7.2,    0.7,   -3.7,   3.8, 349.3,   4.6,  -64.730, -32.156, 999.0, 999.0,  3150.9,  1.0,  1.0,  1.0,  1.0,  1.0, 99.0
 420.5,  690.0,   7.1, -22.3,  10.3,    1.7,   -3.5,   3.9, 334.8,   3.3,  -64.729, -32.156, 999.0, 999.0,  3211.9,  1.0,  1.0,  1.0,  1.0,  1.0, 99.0
 434.7,  685.0,   6.8, -18.9,  14.0,    1.4,   -3.5,   3.8, 338.2,   4.3,  -64.729, -32.156, 999.0, 999.0,  3270.2,  1.0,  1.0,  1.0,  1.0,  1.0, 99.0
 446.2,  680.0,   6.3, -18.5,  14.9,    0.8,   -3.6,   3.7, 347.7,   5.5,  -64.729, -32.157, 999.0, 999.0,  3329.7,  1.0,  1.0,  1.0,  1.0,  1.0, 99.0
 456.6,  675.0,   5.7, -18.1,  16.2,    0.8,   -3.2,   3.3, 346.1,   5.5,  -64.729, -32.157, 999.0, 999.0,  3390.3,  1.0,  1.0,  1.0,  1.0,  1.0, 99.0
 466.6,  670.0,   5.3, -16.7,  18.7,    1.4,   -2.3,   2.7, 329.8,   4.8,  -64.729, -32.157, 999.0, 999.0,  3450.4,  1.0,  1.0,  1.0,  1.0,  1.0, 99.0
 477.6,  665.0,   4.7, -16.7,  19.5,    1.6,   -0.9,   1.9, 300.4,   7.0,  -64.729, -32.157, 999.0, 999.0,  3511.6,  1.0,  1.0,  1.0,  1.0,  1.0, 99.0
 491.7,  660.0,   4.1, -16.8,  20.1,    1.7,    0.2,   1.7, 263.2,   3.9,  -64.729, -32.157, 999.0, 999.0,  3573.3,  1.0,  1.0,  1.0,  1.0,  1.0, 99.0
 507.0,  655.0,   4.0, -17.5,  19.1,    2.6,   -0.1,   2.6, 272.2,   3.9,  -64.728, -32.157, 999.0, 999.0,  3634.7,  1.0,  1.0,  1.0,  1.0,  1.0, 99.0
 522.5,  650.0,   3.7, -18.6,  17.8,    3.4,   -0.8,   3.5, 283.2,   2.9,  -64.728, -32.157, 999.0, 999.0,  3697.6,  1.0,  1.0,  1.0,  1.0,  1.0, 99.0
 538.0,  645.0,   3.3, -19.8,  16.5,    3.9,   -1.5,   4.2, 291.0,   5.2,  -64.727, -32.158, 999.0, 999.0,  3760.7,  1.0,  1.0,  1.0,  1.0,  1.0, 99.0
 553.5,  640.0,   3.0, -20.5,  15.9,    4.6,   -2.0,   5.0, 293.2,   4.8,  -64.726, -32.158, 999.0, 999.0,  3822.9,  1.0,  1.0,  1.0,  1.0,  1.0, 99.0
 567.7,  635.0,   2.5, -21.0,  15.7,    5.5,   -2.3,   6.0, 292.7,   3.8,  -64.726, -32.158, 999.0, 999.0,  3887.5,  1.0,  1.0,  1.0,  1.0,  1.0, 99.0
 582.3,  630.0,   2.0, -22.4,  14.4,    6.5,   -2.5,   7.0, 290.9,   5.7,  -64.725, -32.158, 999.0, 999.0,  3949.3,  1.0,  1.0,  1.0,  1.0,  1.0, 99.0
 594.4,  625.0,   1.8, -25.2,  11.4,    7.1,   -2.3,   7.5, 287.9,   4.9,  -64.724, -32.159, 999.0, 999.0,  4012.8,  1.0,  1.0,  1.0,  1.0,  1.0, 99.0
 606.5,  620.0,   1.4, -27.3,   9.8,    7.3,   -1.8,   7.5, 283.9,   3.6,  -64.723, -32.159, 999.0, 999.0,  4079.3,  1.0,  1.0,  1.0,  1.0,  1.0, 99.0
 621.7,  615.0,   0.8, -27.6,   9.8,    7.6,   -0.8,   7.6, 276.3,   4.7,  -64.722, -32.159, 999.0, 999.0,  4144.8,  1.0,  1.0,  1.0,  1.0,  1.0, 99.0
 638.0,  610.0,   0.2, -27.7,  10.2,    7.6,   -0.5,   7.6, 273.8,   4.4,  -64.720, -32.159, 999.0, 999.0,  4209.9,  1.0,  1.0,  1.0,  1.0,  1.0, 99.0
 651.8,  605.0,  -0.4, -28.2,  10.1,    7.7,    0.0,   7.7, 270.1,   5.4,  -64.719, -32.159, 999.0, 999.0,  4274.9,  1.0,  1.0,  1.0,  1.0,  1.0, 99.0
 664.0,  600.0,  -0.9, -29.6,   9.3,    7.7,    0.1,   7.7, 269.3,   3.6,  -64.718, -32.159, 999.0, 999.0,  4341.3,  1.0,  1.0,  1.0,  1.0,  1.0, 99.0
 680.0,  595.0,  -1.6, -29.9,   9.5,    7.6,    0.0,   7.6, 270.0,   4.3,  -64.717, -32.159, 999.0, 999.0,  4407.9,  1.0,  1.0,  1.0,  1.0,  1.0, 99.0
 696.3,  590.0,  -2.2, -30.0,   9.8,    8.1,    0.0,   8.1, 270.0,   4.4,  -64.715, -32.159, 999.0, 999.0,  4474.9,  1.0,  1.0,  1.0,  1.0,  1.0, 99.0
 712.3,  585.0,  -2.8, -31.3,   9.1,    8.2,   -0.4,   8.2, 272.8,   4.3,  -64.714, -32.159, 999.0, 999.0,  4543.0,  1.0,  1.0,  1.0,  1.0,  1.0, 99.0
 729.3,  580.0,  -3.4, -31.3,   9.5,    8.1,   -0.6,   8.1, 274.2,   3.0,  -64.713, -32.159, 999.0, 999.0,  4611.1,  1.0,  1.0,  1.0,  1.0,  1.0, 99.0
 746.3,  575.0,  -4.1, -32.2,   9.2,    8.1,   -0.3,   8.1, 272.1,   3.8,  -64.711, -32.159, 999.0, 999.0,  4678.9,  1.0,  1.0,  1.0,  1.0,  1.0, 99.0
 763.0,  570.0,  -4.7, -32.2,   9.6,    8.7,   -0.3,   8.7, 272.0,   3.9,  -64.710, -32.159, 999.0, 999.0,  4747.3,  1.0,  1.0,  1.0,  1.0,  1.0, 99.0
 780.3,  565.0,  -4.7, -35.6,   6.9,   10.0,   -0.7,  10.1, 274.0,   3.4,  -64.708, -32.160, 999.0, 999.0,  4816.1,  1.0,  1.0,  1.0,  1.0,  1.0, 99.0
 797.0,  560.0,  -5.3, -35.9,   7.0,   11.1,   -1.6,  11.2, 278.2,   3.5,  -64.706, -32.160, 999.0, 999.0,  4886.1,  1.0,  1.0,  1.0,  1.0,  1.0, 99.0
 813.0,  555.0,  -5.7, -36.6,   6.7,   11.8,   -2.5,  12.1, 282.0,   3.8,  -64.704, -32.160, 999.0, 999.0,  4957.4,  1.0,  1.0,  1.0,  1.0,  1.0, 99.0
 827.0,  550.0,  -6.2, -37.3,   6.5,   12.5,   -2.9,  12.8, 283.1,   5.7,  -64.702, -32.160, 999.0, 999.0,  5029.1,  1.0,  1.0,  1.0,  1.0,  1.0, 99.0
 840.0,  545.0,  -6.7, -38.1,   6.2,   13.3,   -3.3,  13.7, 283.9,   7.0,  -64.701, -32.161, 999.0, 999.0,  5101.1,  1.0,  1.0,  1.0,  1.0,  1.0, 99.0
 853.7,  540.0,  -7.0, -38.2,   6.3,   13.8,   -3.1,  14.2, 282.5,   4.4,  -64.699, -32.161, 999.0, 999.0,  5171.5,  1.0,  1.0,  1.0,  1.0,  1.0, 99.0
 867.3,  535.0,  -7.5, -37.2,   7.2,   14.4,   -1.8,  14.5, 277.1,   5.4,  -64.697, -32.161, 999.0, 999.0,  5243.3,  1.0,  1.0,  1.0,  1.0,  1.0, 99.0
 881.5,  530.0,  -8.1, -36.9,   7.8,   15.3,   -1.1,  15.3, 274.1,   5.8,  -64.694, -32.162, 999.0, 999.0,  5316.7,  1.0,  1.0,  1.0,  1.0,  1.0, 99.0
 894.7,  525.0,  -8.7, -37.5,   7.7,   15.9,   -0.7,  15.9, 272.3,   6.1,  -64.692, -32.162, 999.0, 999.0,  5390.3,  1.0,  1.0,  1.0,  1.0,  1.0, 99.0
 908.3,  520.0,  -9.3, -38.4,   7.4,   16.5,    0.0,  16.5, 270.0,   3.9,  -64.690, -32.162, 999.0, 999.0,  5465.9,  1.0,  1.0,  1.0,  1.0,  1.0, 99.0
 925.0,  515.0, -10.0, -38.9,   7.4,   17.9,    0.6,  17.9, 268.1,   5.8,  -64.687, -32.162, 999.0, 999.0,  5537.9,  1.0,  1.0,  1.0,  1.0,  1.0, 99.0
 942.7,  510.0, -10.5, -41.1,   6.1,   19.2,    1.0,  19.2, 267.0,   4.4,  -64.683, -32.162, 999.0, 999.0,  5613.0,  1.0,  1.0,  1.0,  1.0,  1.0, 99.0
 961.3,  505.0, -11.1, -43.3,   5.1,   19.8,    1.4,  19.8, 266.0,   3.6,  -64.680, -32.161, 999.0, 999.0,  5689.9,  1.0,  1.0,  1.0,  1.0,  1.0, 99.0
 981.3,  500.0, -11.8, -44.4,   4.8,   20.3,    1.8,  20.4, 264.9,   4.4,  -64.675, -32.161, 999.0, 999.0,  5765.3,  1.0,  1.0,  1.0,  1.0,  1.0, 99.0
1001.0,  495.0, -12.4, -45.4,   4.5,   20.7,    2.2,  20.8, 263.9,   4.4,  -64.671, -32.161, 999.0, 999.0,  5842.5,  1.0,  1.0,  1.0,  1.0,  1.0, 99.0
1021.0,  490.0, -12.8, -47.7,   3.6,   20.3,    1.4,  20.3, 266.1,   4.2,  -64.667, -32.160, 999.0, 999.0,  5920.3,  1.0,  1.0,  1.0,  1.0,  1.0, 99.0
1041.1,  485.0, -13.0, -47.5,   3.7,   19.9,    0.3,  19.9, 269.1,   3.3,  -64.662, -32.160, 999.0, 999.0,  5996.6,  1.0,  1.0,  1.0,  1.0,  1.0, 99.0
1062.0,  480.0, -13.6, -42.3,   6.9,   19.4,   -0.7,  19.4, 272.1,   3.7,  -64.658, -32.160, 999.0, 999.0,  6077.0,  1.0,  1.0,  1.0,  1.0,  1.0, 99.0
1082.5,  475.0, -14.2, -41.8,   7.7,   18.5,   -1.5,  18.5, 274.5,   3.5,  -64.654, -32.161, 999.0, 999.0,  6155.5,  1.0,  1.0,  1.0,  1.0,  1.0, 99.0
1103.3,  470.0, -14.8, -42.1,   7.8,   17.7,   -2.5,  17.9, 278.0,   3.4,  -64.650, -32.161, 999.0, 999.0,  6235.9,  1.0,  1.0,  1.0,  1.0,  1.0, 99.0
1124.0,  465.0, -15.1, -45.2,   5.7,   17.3,   -3.7,  17.7, 282.1,   3.5,  -64.646, -32.161, 999.0, 999.0,  6317.2,  1.0,  1.0,  1.0,  1.0,  1.0, 99.0
1144.3,  460.0, -15.4, -47.4,   4.6,   17.6,   -4.0,  18.1, 282.8,   3.9,  -64.642, -32.162, 999.0, 999.0,  6398.5,  1.0,  1.0,  1.0,  1.0,  1.0, 99.0
1164.1,  455.0, -15.9, -45.2,   6.1,   18.0,   -3.5,  18.3, 281.0,   4.5,  -64.638, -32.163, 999.0, 999.0,  6481.7,  1.0,  1.0,  1.0,  1.0,  1.0, 99.0
1184.3,  450.0, -16.7, -44.0,   7.4,   18.1,   -3.5,  18.4, 280.9,   3.1,  -64.635, -32.163, 999.0, 999.0,  6564.6,  1.0,  1.0,  1.0,  1.0,  1.0, 99.0
1204.0,  445.0, -17.4, -44.0,   7.9,   17.9,   -3.5,  18.2, 281.1,   4.2,  -64.631, -32.164, 999.0, 999.0,  6646.9,  1.0,  1.0,  1.0,  1.0,  1.0, 99.0
1224.3,  440.0, -18.1, -46.1,   6.7,   17.6,   -4.1,  18.1, 283.1,   3.8,  -64.627, -32.165, 999.0, 999.0,  6732.8,  1.0,  1.0,  1.0,  1.0,  1.0, 99.0
1244.5,  435.0, -18.7, -46.3,   6.9,   17.6,   -4.7,  18.2, 285.0,   3.9,  -64.623, -32.166, 999.0, 999.0,  6818.7,  1.0,  1.0,  1.0,  1.0,  1.0, 99.0
1265.5,  430.0, -19.4, -47.1,   6.7,   17.5,   -5.0,  18.2, 286.0,   4.6,  -64.619, -32.167, 999.0, 999.0,  6903.1,  1.0,  1.0,  1.0,  1.0,  1.0, 99.0
1286.5,  425.0, -20.2, -48.4,   6.2,   17.0,   -4.6,  17.6, 285.1,   3.2,  -64.616, -32.167, 999.0, 999.0,  6990.0,  1.0,  1.0,  1.0,  1.0,  1.0, 99.0
1307.5,  420.0, -21.0, -50.0,   5.5,   17.3,   -4.3,  17.8, 284.0,   4.6,  -64.612, -32.168, 999.0, 999.0,  7078.7,  1.0,  1.0,  1.0,  1.0,  1.0, 99.0
1328.7,  415.0, -21.6, -50.6,   5.4,   17.7,   -4.7,  18.3, 284.9,   3.7,  -64.608, -32.169, 999.0, 999.0,  7166.0,  1.0,  1.0,  1.0,  1.0,  1.0, 99.0
1351.0,  410.0, -22.2, -50.8,   5.6,   17.2,   -4.9,  17.9, 285.9,   4.1,  -64.604, -32.170, 999.0, 999.0,  7255.2,  1.0,  1.0,  1.0,  1.0,  1.0, 99.0
1373.0,  405.0, -22.8, -51.9,   5.2,   16.8,   -4.8,  17.5, 285.9,   3.1,  -64.600, -32.171, 999.0, 999.0,  7344.2,  1.0,  1.0,  1.0,  1.0,  1.0, 99.0
1396.0,  400.0, -23.6, -52.1,   5.4,   16.4,   -4.7,  17.1, 286.0,   4.4,  -64.596, -32.172, 999.0, 999.0,  7435.2,  1.0,  1.0,  1.0,  1.0,  1.0, 99.0
1418.5,  395.0, -24.5, -52.4,   5.7,   16.5,   -4.1,  17.0, 284.0,   4.4,  -64.592, -32.173, 999.0, 999.0,  7527.9,  1.0,  1.0,  1.0,  1.0,  1.0, 99.0
1440.5,  390.0, -25.4, -52.6,   6.0,   16.7,   -4.2,  17.2, 284.1,   3.8,  -64.588, -32.174, 999.0, 999.0,  7620.3,  1.0,  1.0,  1.0,  1.0,  1.0, 99.0
1462.0,  385.0, -26.2, -52.4,   6.6,   17.2,   -4.6,  17.8, 285.0,   4.1,  -64.584, -32.175, 999.0, 999.0,  7712.9,  1.0,  1.0,  1.0,  1.0,  1.0, 99.0
1483.7,  380.0, -27.1, -52.3,   7.3,   18.3,   -5.2,  19.0, 285.9,   4.1,  -64.580, -32.176, 999.0, 999.0,  7808.8,  1.0,  1.0,  1.0,  1.0,  1.0, 99.0
1505.3,  375.0, -28.0, -52.3,   7.9,   18.5,   -5.3,  19.2, 286.0,   5.3,  -64.576, -32.177, 999.0, 999.0,  7902.9,  1.0,  1.0,  1.0,  1.0,  1.0, 99.0
1528.0,  370.0, -28.9, -52.4,   8.5,   18.8,   -5.4,  19.6, 286.0,   4.1,  -64.571, -32.178, 999.0, 999.0,  7998.5,  1.0,  1.0,  1.0,  1.0,  1.0, 99.0
1552.0,  365.0, -29.8, -52.7,   8.9,   18.4,   -5.6,  19.2, 286.9,   3.9,  -64.566, -32.179, 999.0, 999.0,  8095.7,  1.0,  1.0,  1.0,  1.0,  1.0, 99.0
1576.0,  360.0, -30.7, -52.9,   9.5,   18.7,   -5.4,  19.5, 286.1,   3.0,  -64.562, -32.180, 999.0, 999.0,  8195.2,  1.0,  1.0,  1.0,  1.0,  1.0, 99.0
1600.5,  355.0, -31.6, -54.0,   9.1,   19.9,   -5.3,  20.6, 284.9,   3.8,  -64.557, -32.181, 999.0, 999.0,  8294.3,  1.0,  1.0,  1.0,  1.0,  1.0, 99.0
1626.0,  350.0, -32.4, -56.3,   7.4,   20.7,   -5.9,  21.5, 285.9,   3.9,  -64.551, -32.182, 999.0, 999.0,  8394.4,  1.0,  1.0,  1.0,  1.0,  1.0, 99.0
1650.5,  345.0, -32.9, -60.0,   4.9,   22.8,   -7.4,  23.9, 288.0,   4.0,  -64.546, -32.184, 999.0, 999.0,  8495.9,  1.0,  1.0,  1.0,  1.0,  1.0, 99.0
1674.5,  340.0, -32.9, -63.3,   3.2,   26.0,   -8.4,  27.3, 287.9,   4.5,  -64.539, -32.186, 999.0, 999.0,  8599.1,  1.0,  1.0,  1.0,  1.0,  1.0, 99.0
1698.7,  335.0, -32.9, -64.3,   2.8,   28.0,   -7.5,  29.0, 285.0,   4.8,  -64.532, -32.187, 999.0, 999.0,  8701.5,  1.0,  1.0,  1.0,  1.0,  1.0, 99.0
1720.0,  330.0, -33.4, -65.5,   2.5,   30.6,   -7.1,  31.4, 283.1,   5.6,  -64.526, -32.189, 999.0, 999.0,  8805.3,  1.0,  1.0,  1.0,  1.0,  1.0, 99.0
1743.5,  325.0, -33.9, -65.3,   2.7,   32.8,   -7.6,  33.6, 283.1,   3.6,  -64.518, -32.190, 999.0, 999.0,  8914.4,  1.0,  1.0,  1.0,  1.0,  1.0, 99.0
1769.0,  320.0, -34.3, -64.8,   3.0,   34.9,   -8.7,  36.0, 284.0,   4.2,  -64.509, -32.192, 999.0, 999.0,  9024.1,  1.0,  1.0,  1.0,  1.0,  1.0, 99.0
1795.5,  315.0, -34.3, -65.4,   2.8,   37.6,   -9.4,  38.8, 284.0,   3.9,  -64.499, -32.194, 999.0, 999.0,  9134.1,  1.0,  1.0,  1.0,  1.0,  1.0, 99.0
1821.5,  310.0, -34.8, -65.6,   2.8,   40.0,   -8.5,  40.9, 282.0,   4.1,  -64.488, -32.197, 999.0, 999.0,  9245.7,  1.0,  1.0,  1.0,  1.0,  1.0, 99.0
1849.0,  305.0, -35.3, -64.4,   3.5,   40.9,   -8.0,  41.7, 281.1,   4.7,  -64.476, -32.199, 999.0, 999.0,  9358.7,  1.0,  1.0,  1.0,  1.0,  1.0, 99.0
1875.5,  300.0, -36.3, -64.5,   3.8,   40.6,   -7.2,  41.2, 280.1,   4.5,  -64.464, -32.200, 999.0, 999.0,  9472.2,  1.0,  1.0,  1.0,  1.0,  1.0, 99.0
1903.0,  295.0, -37.2, -64.2,   4.3,   41.6,   -5.8,  42.0, 277.9,   5.5,  -64.452, -32.202, 999.0, 999.0,  9590.0,  1.0,  1.0,  1.0,  1.0,  1.0, 99.0
1929.5,  290.0, -37.8, -63.7,   5.0,   44.1,   -5.0,  44.4, 276.5,   4.7,  -64.440, -32.203, 999.0, 999.0,  9706.4,  1.0,  1.0,  1.0,  1.0,  1.0, 99.0
1953.5,  285.0, -38.6, -63.7,   5.3,   46.8,   -4.1,  46.9, 275.0,   4.9,  -64.429, -32.204, 999.0, 999.0,  9827.3,  1.0,  1.0,  1.0,  1.0,  1.0, 99.0
1979.0,  280.0, -39.3, -63.7,   5.7,   50.6,   -3.5,  50.7, 274.0,   3.8,  -64.415, -32.205, 999.0, 999.0,  9947.8,  1.0,  1.0,  1.0,  1.0,  1.0, 99.0
2004.0,  275.0, -39.4, -64.8,   5.0,   54.0,   -4.7,  54.2, 275.0,   4.8,  -64.401, -32.206, 999.0, 999.0, 10072.9,  1.0,  1.0,  1.0,  1.0,  1.0, 99.0
2029.0,  270.0, -40.1, -65.2,   5.1,   56.4,   -4.9,  56.6, 275.0,   4.5,  -64.387, -32.207, 999.0, 999.0, 10197.3,  1.0,  1.0,  1.0,  1.0,  1.0, 99.0
2058.0,  265.0, -41.0, -63.7,   6.8,   57.8,   -6.1,  58.1, 276.0,   4.6,  -64.369, -32.209, 999.0, 999.0, 10325.7,  1.0,  1.0,  1.0,  1.0,  1.0, 99.0
2086.0,  260.0, -42.0, -63.3,   8.0,   58.2,   -6.1,  58.5, 276.0,   4.0,  -64.352, -32.210, 999.0, 999.0, 10452.5,  1.0,  1.0,  1.0,  1.0,  1.0, 99.0
2115.5,  255.0, -43.1, -62.8,   9.6,   58.4,   -5.1,  58.6, 275.0,   4.0,  -64.334, -32.212, 999.0, 999.0, 10584.8,  1.0,  1.0,  1.0,  1.0,  1.0, 99.0
2146.0,  250.0, -44.2, -65.1,   8.0,   59.4,   -6.2,  59.7, 276.0,   4.8,  -64.315, -32.213, 999.0, 999.0, 10718.3,  1.0,  1.0,  1.0,  1.0,  1.0, 99.0
2177.0,  245.0, -45.1, -56.3,  27.2,   60.2,   -7.4,  60.7, 277.0,   4.8,  -64.295, -32.215, 999.0, 999.0, 10854.4,  1.0,  1.0,  1.0,  1.0,  1.0, 99.0
2209.5,  240.0, -46.5, -57.3,  28.0,   60.3,   -7.4,  60.8, 277.0,   3.7,  -64.274, -32.217, 999.0, 999.0, 10990.9,  1.0,  1.0,  1.0,  1.0,  1.0, 99.0
2243.5,  235.0, -47.8, -54.8,  44.3,   61.2,   -6.4,  61.5, 276.0,   5.3,  -64.252, -32.219, 999.0, 999.0, 11129.5,  1.0,  1.0,  1.0,  1.0,  1.0, 99.0
