Time,Press,Temp,Dewpt,RH,Ucmp,Vcmp,spd,dir,Wcm, Lon,Lat,Ele,Azi,Alt, Qp,Qt,Qr, Qu,Qv,Qd
   0.0,  888.0,  26.5,  16.5,  53.9,   -4.6,    2.7,   5.3, 120.0,   0.0,  -64.730, -32.130, 999.0, 999.0,  1139.4,  3.0,  3.0,  3.0,  1.0,  1.0, 99.0
   4.4,  885.0,  22.1,  14.4,  61.7,   -3.3,    1.8,   3.8, 118.6,   6.1,  -64.730, -32.130, 999.0, 999.0,  1168.5,  1.0,  1.0,  1.0,  1.0,  1.0, 99.0
  13.8,  880.0,  21.3,  13.8,  62.4,   -4.6,    2.7,   5.3, 120.1,   5.4,  -64.731, -32.130, 999.0, 999.0,  1218.7,  1.0,  1.0,  1.0,  1.0,  1.0, 99.0
  24.5,  875.0,  20.8,  13.7,  63.8,   -4.9,    2.9,   5.7, 120.6,   5.5,  -64.731, -32.129, 999.0, 999.0,  1267.6,  1.0,  1.0,  1.0,  1.0,  1.0, 99.0
  37.0,  870.0,  20.4,  13.6,  65.0,   -4.4,    3.6,   5.7, 129.3,   4.3,  -64.732, -32.129, 999.0, 999.0,  1316.6,  1.0,  1.0,  1.0,  1.0,  1.0, 99.0
  48.0,  865.0,  20.0,  13.2,  65.0,   -3.9,    4.5,   6.0, 139.1,   4.8,  -64.732, -32.129, 999.0, 999.0,  1367.3,  1.0,  1.0,  1.0,  1.0,  1.0, 99.0
  60.0,  860.0,  19.5,  12.6,  64.3,   -3.7,    5.5,   6.6, 146.1,   4.1,  -64.733, -32.128, 999.0, 999.0,  1416.5,  1.0,  1.0,  1.0,  1.0,  1.0, 99.0
  70.7,  855.0,  19.0,  12.8,  67.4,   -3.9,    5.8,   7.0, 146.1,   4.1,  -64.733, -32.128, 999.0, 999.0,  1467.0,  1.0,  1.0,  1.0,  1.0,  1.0, 99.0
  81.8,  850.0,  18.6,  12.7,  68.6,   -4.3,    5.1,   6.7, 139.9,   4.6,  -64.734, -32.127, 999.0, 999.0,  1516.9,  1.0,  1.0,  1.0,  1.0,  1.0, 99.0
  91.2,  845.0,  18.1,  12.6,  70.2,   -4.3,    4.8,   6.4, 138.1,   6.1,  -64.734, -32.127, 999.0, 999.0,  1567.3,  1.0,  1.0,  1.0,  1.0,  1.0, 99.0
 100.0,  840.0,  17.6,  12.6,  72.7,   -4.0,    4.9,   6.3, 140.8,   6.3,  -64.734, -32.126, 999.0, 999.0,  1620.0,  1.0,  1.0,  1.0,  1.0,  1.0, 99.0
 107.9,  835.0,  17.1,  13.0,  76.6,   -3.5,    5.2,   6.3, 145.9,   6.8,  -64.735, -32.126, 999.0, 999.0,  1669.5,  1.0,  1.0,  1.0,  1.0,  1.0, 99.0
 116.2,  830.0,  16.6,  12.7,  77.6,   -3.4,    5.7,   6.6, 149.2,   4.6,  -64.735, -32.126, 999.0, 999.0,  1722.5,  1.0,  1.0,  1.0,  1.0,  1.0, 99.0
 124.4,  825.0,  16.2,  12.7,  79.7,   -3.4,    5.9,   6.9, 149.9,   7.6,  -64.735, -32.125, 999.0, 999.0,  1771.0,  1.0,  1.0,  1.0,  1.0,  1.0, 99.0
 131.7,  820.0,  15.6,  12.7,  82.7,   -3.4,    5.9,   6.8, 150.0,   7.4,  -64.736, -32.125, 999.0, 999.0,  1824.2,  1.0,  1.0,  1.0,  1.0,  1.0, 99.0
 139.2,  815.0,  15.2,  12.0,  81.4,   -3.3,    5.6,   6.5, 149.5,   6.6,  -64.736, -32.124, 999.0, 999.0,  1877.1,  1.0,  1.0,  1.0,  1.0,  1.0, 99.0
 146.3,  810.0,  14.7,  12.4,  86.3,   -3.1,    5.3,   6.1, 149.7,   8.1,  -64.736, -32.124, 999.0, 999.0,  1929.6,  1.0,  1.0,  1.0,  1.0,  1.0, 99.0
 153.8,  805.0,  14.2,  12.2,  87.9,   -3.1,    5.3,   6.1, 149.7,   6.1,  -64.736, -32.124, 999.0, 999.0,  1982.1,  1.0,  1.0,  1.0,  1.0,  1.0, 99.0
 162.8,  800.0,  13.8,  11.3,  85.0,   -3.0,    5.4,   6.2, 150.8,   6.5,  -64.737, -32.123, 999.0, 999.0,  2035.3,  1.0,  1.0,  1.0,  1.0,  1.0, 99.0
 172.7,  795.0,  13.5,  10.0,  79.2,   -3.0,    5.7,   6.4, 152.2,   4.2,  -64.737, -32.123, 999.0, 999.0,  2086.5,  1.0,  1.0,  1.0,  1.0,  1.0, 99.0
 183.6,  790.0,  13.1,   8.7,  74.5,   -3.1,    6.1,   6.8, 153.1,   4.4,  -64.737, -32.122, 999.0, 999.0,  2141.5,  1.0,  1.0,  1.0,  1.0,  1.0, 99.0
 193.4,  785.0,  12.8,   7.7,  71.2,   -3.8,    6.1,   7.2, 148.1,   6.7,  -64.738, -32.122, 999.0, 999.0,  2194.8,  1.0,  1.0,  1.0,  1.0,  1.0, 99.0
 203.6,  780.0,  12.4,   7.4,  71.2,   -4.5,    5.6,   7.2, 141.2,   5.3,  -64.738, -32.121, 999.0, 999.0,  2246.4,  1.0,  1.0,  1.0,  1.0,  1.0, 99.0
 213.2,  775.0,  12.0,   7.1,  72.2,   -4.9,    5.1,   7.1, 136.1,   5.4,  -64.739, -32.121, 999.0, 999.0,  2302.5,  1.0,  1.0,  1.0,  1.0,  1.0, 99.0
 224.0,  770.0,  11.6,   6.6,  71.3,   -5.1,    4.9,   7.1, 133.9,   3.8,  -64.739, -32.120, 999.0, 999.0,  2355.0,  1.0,  1.0,  1.0,  1.0,  1.0, 99.0
 234.0,  765.0,  11.0,   6.7,  74.7,   -5.1,    4.4,   6.7, 130.8,   5.2,  -64.740, -32.120, 999.0, 999.0,  2410.9,  1.0,  1.0,  1.0,  1.0,  1.0, 99.0
 245.3,  760.0,  10.6,   6.3,  74.9,   -5.0,    3.7,   6.2, 126.5,   5.0,  -64.740, -32.119, 999.0, 999.0,  2464.5,  1.0,  1.0,  1.0,  1.0,  1.0, 99.0
 256.0,  755.0,  10.1,   6.0,  75.5,   -4.8,    3.4,   5.9, 125.3,   5.6,  -64.741, -32.119, 999.0, 999.0,  2521.4,  1.0,  1.0,  1.0,  1.0,  1.0, 99.0
 266.4,  750.0,   9.6,   5.7,  77.0,   -4.8,    3.6,   6.0, 126.9,   6.5,  -64.741, -32.119, 999.0, 999.0,  2577.3,  1.0,  1.0,  1.0,  1.0,  1.0, 99.0
 279.5,  745.0,   9.1,   5.5,  77.7,   -4.9,    3.5,   6.0, 125.5,   3.6,  -64.742, -32.118, 999.0, 999.0,  2629.7,  1.0,  1.0,  1.0,  1.0,  1.0, 99.0
 289.3,  740.0,   8.7,   5.0,  77.9,   -4.5,    2.9,   5.3, 123.0,   5.5,  -64.743, -32.118, 999.0, 999.0,  2686.2,  1.0,  1.0,  1.0,  1.0,  1.0, 99.0
 299.0,  735.0,   8.3,   4.5,  76.9,   -3.3,    2.3,   4.0, 124.9,   4.4,  -64.743, -32.118, 999.0, 999.0,  2743.5,  2.0,  2.0,  2.0,  1.0,  1.0, 99.0
 310.0,  730.0,   9.6,  -2.1,  43.9,   -1.1,    2.2,   2.5, 153.4,   4.8,  -64.743, -32.117, 999.0, 999.0,  2797.2,  1.0,  1.0,  1.0,  1.0,  1.0, 99.0
 320.0,  725.0,  10.1,  -5.1,  33.9,    0.7,    1.9,   2.0, 200.2,   6.1,  -64.743, -32.117, 999.0, 999.0,  2859.9,  1.0,  1.0,  1.0,  1.0,  1.0, 99.0
 332.4,  720.0,  10.3,  -7.7,  27.6,    0.3,    0.4,   0.5, 220.1,   5.7,  -64.743, -32.117, 999.0, 999.0,  2913.2,  1.0,  1.0,  1.0,  1.0,  1.0, 99.0
 342.4,  715.0,  11.3, -14.2,  15.3,   -1.5,   -0.8,   1.8,  61.4,   6.6,  -64.743, -32.117, 999.0, 999.0,  2972.6,  1.0,  1.0,  1.0,  1.0,  1.0, 99.0
 355.3,  710.0,  11.9, -21.3,   8.1,   -3.2,   -1.1,   3.4,  71.0,   3.8,  -64.744, -32.117, 999.0, 999.0,  3030.9,  1.0,  1.0,  1.0,  1.0,  1.0, 99.0
 366.0,  705.0,  12.1, -25.1,   5.7,   -3.4,   -0.9,   3.5,  75.2,   5.5,  -64.744, -32.117, 999.0, 999.0,  3090.0,  1.0,  1.0,  1.0,  1.0,  1.0, 99.0
 377.8,  700.0,  11.7, -26.1,   5.3,   -3.5,   -1.4,   3.8,  68.5,   8.3,  -64.744, -32.117, 999.0, 999.0,  3149.0,  1.0,  1.0,  1.0,  1.0,  1.0, 99.0
 388.4,  695.0,  12.1, -24.0,   6.3,   -4.1,   -2.4,   4.7,  59.9,   6.0,  -64.745, -32.118, 999.0, 999.0,  3208.0,  1.0,  1.0,  1.0,  1.0,  1.0, 99.0
 399.4,  690.0,  11.7, -23.2,   6.9,   -4.1,   -3.9,   5.6,  46.6,   5.9,  -64.745, -32.118, 999.0, 999.0,  3268.6,  1.0,  1.0,  1.0,  1.0,  1.0, 99.0
 409.8,  685.0,  11.6, -23.8,   6.6,   -3.1,   -5.1,   6.0,  31.5,   5.2,  -64.746, -32.118, 999.0, 999.0,  3329.4,  1.0,  1.0,  1.0,  1.0,  1.0, 99.0
 421.7,  680.0,  11.7, -27.0,   4.9,   -2.1,   -5.6,   6.0,  20.6,   3.6,  -64.746, -32.119, 999.0, 999.0,  3390.8,  1.0,  1.0,  1.0,  1.0,  1.0, 99.0
 433.8,  675.0,  11.6, -26.5,   5.2,   -1.3,   -5.7,   5.8,  12.8,   6.2,  -64.746, -32.120, 999.0, 999.0,  3451.9,  1.0,  1.0,  1.0,  1.0,  1.0, 99.0
 445.5,  670.0,  11.8, -28.7,   4.2,   -0.7,   -6.2,   6.2,   6.4,   6.0,  -64.746, -32.120, 999.0, 999.0,  3513.7,  1.0,  1.0,  1.0,  1.0,  1.0, 99.0
 456.5,  665.0,  11.8, -26.0,   5.4,   -0.2,   -6.7,   6.7,   1.7,   5.7,  -64.747, -32.121, 999.0, 999.0,  3575.9,  1.0,  1.0,  1.0,  1.0,  1.0, 99.0
 468.5,  660.0,  11.3, -29.5,   4.0,    0.5,   -7.0,   7.0, 355.9,   5.6,  -64.747, -32.122, 999.0, 999.0,  3640.5,  1.0,  1.0,  1.0,  1.0,  1.0, 99.0
 481.0,  655.0,  11.2, -31.6,   3.3,    1.6,   -6.6,   6.8, 346.4,   6.4,  -64.746, -32.122, 999.0, 999.0,  3702.5,  1.0,  1.0,  1.0,  1.0,  1.0, 99.0
 491.7,  650.0,  10.9, -31.5,   3.4,    2.6,   -6.2,   6.7, 337.2,   4.8,  -64.746, -32.123, 999.0, 999.0,  3769.0,  1.0,  1.0,  1.0,  1.0,  1.0, 99.0
 507.0,  645.0,  10.4, -31.5,   3.5,    3.0,   -5.4,   6.2, 330.9,   5.6,  -64.746, -32.124, 999.0, 999.0,  3830.5,  1.0,  1.0,  1.0,  1.0,  1.0, 99.0
 519.0,  640.0,   9.9, -30.5,   4.0,    3.1,   -5.0,   5.9, 328.2,   5.5,  -64.745, -32.124, 999.0, 999.0,  3895.0,  1.0,  1.0,  1.0,  1.0,  1.0, 99.0
 531.5,  635.0,   9.5, -29.4,   4.6,    3.6,   -4.6,   5.8, 322.3,   6.3,  -64.745, -32.125, 999.0, 999.0,  3960.2,  1.0,  1.0,  1.0,  1.0,  1.0, 99.0
 543.3,  630.0,   9.0, -29.2,   4.8,    4.6,   -4.0,   6.0, 311.1,   5.6,  -64.744, -32.125, 999.0, 999.0,  4025.7,  1.0,  1.0,  1.0,  1.0,  1.0, 99.0
 555.0,  625.0,   8.4, -29.2,   5.0,    5.9,   -3.2,   6.7, 298.5,   4.5,  -64.744, -32.126, 999.0, 999.0,  4091.4,  1.0,  1.0,  1.0,  1.0,  1.0, 99.0
 567.0,  620.0,   7.7, -29.3,   5.2,    6.5,   -2.8,   7.1, 293.3,   5.7,  -64.743, -32.126, 999.0, 999.0,  4158.8,  1.0,  1.0,  1.0,  1.0,  1.0, 99.0
 582.3,  615.0,   7.3, -29.2,   5.4,    6.6,   -1.9,   6.9, 285.7,   3.6,  -64.742, -32.126, 999.0, 999.0,  4225.1,  1.0,  1.0,  1.0,  1.0,  1.0, 99.0
 600.0,  610.0,   6.7, -29.8,   5.3,    6.6,   -1.3,   6.7, 281.1,   3.3,  -64.741, -32.127, 999.0, 999.0,  4290.5,  1.0,  1.0,  1.0,  1.0,  1.0, 99.0
 613.3,  605.0,   6.3, -30.0,   5.3,    6.0,   -0.8,   6.0, 277.3,   3.9,  -64.740, -32.127, 999.0, 999.0,  4359.8,  1.0,  1.0,  1.0,  1.0,  1.0, 99.0
 627.0,  600.0,   5.8, -19.2,  14.6,    6.1,   -0.2,   6.1, 271.9,   5.9,  -64.739, -32.127, 999.0, 999.0,  4426.0,  1.0,  1.0,  1.0,  1.0,  1.0, 99.0
 639.3,  595.0,   5.2, -14.3,  22.9,    7.0,   -0.5,   7.1, 274.1,   5.2,  -64.738, -32.127, 999.0, 999.0,  4495.7,  1.0,  1.0,  1.0,  1.0,  1.0, 99.0
 655.7,  590.0,   4.6, -11.8,  29.3,    8.4,   -1.0,   8.4, 276.8,   3.1,  -64.737, -32.127, 999.0, 999.0,  4563.0,  1.0,  1.0,  1.0,  1.0,  1.0, 99.0
 673.7,  585.0,   4.3, -17.7,  18.4,    9.2,   -0.7,   9.2, 274.2,   3.6,  -64.735, -32.127, 999.0, 999.0,  4632.8,  1.0,  1.0,  1.0,  1.0,  1.0, 99.0
 689.7,  580.0,   3.8, -20.4,  15.2,    9.6,    0.3,   9.6, 268.2,   5.7,  -64.733, -32.127, 999.0, 999.0,  4702.9,  1.0,  1.0,  1.0,  1.0,  1.0, 99.0
 702.3,  575.0,   3.2, -22.3,  13.4,    9.8,    1.0,   9.9, 264.2,   6.1,  -64.732, -32.127, 999.0, 999.0,  4774.0,  1.0,  1.0,  1.0,  1.0,  1.0, 99.0
 714.5,  570.0,   2.7, -23.6,  12.5,    9.9,    0.9,   9.9, 264.8,   6.4,  -64.731, -32.127, 999.0, 999.0,  4841.4,  1.0,  1.0,  1.0,  1.0,  1.0, 99.0
 729.3,  565.0,   2.4, -31.3,   6.2,    9.7,    0.3,   9.7, 268.2,   3.9,  -64.729, -32.127, 999.0, 999.0,  4913.1,  1.0,  1.0,  1.0,  1.0,  1.0, 99.0
 746.0,  560.0,   2.0, -34.5,   4.7,    9.7,   -0.2,   9.7, 271.2,   4.8,  -64.728, -32.127, 999.0, 999.0,  4986.3,  1.0,  1.0,  1.0,  1.0,  1.0, 99.0
 762.3,  555.0,   1.5, -34.4,   4.9,   10.6,   -0.7,  10.6, 273.8,   3.4,  -64.726, -32.127, 999.0, 999.0,  5058.2,  1.0,  1.0,  1.0,  1.0,  1.0, 99.0
 777.3,  550.0,   0.8, -33.3,   5.7,   11.5,   -1.0,  11.5, 275.0,   6.6,  -64.724, -32.127, 999.0, 999.0,  5130.7,  1.0,  1.0,  1.0,  1.0,  1.0, 99.0
 790.3,  545.0,   0.6, -42.8,   2.2,   12.1,   -0.8,  12.2, 273.9,   4.7,  -64.723, -32.127, 999.0, 999.0,  5205.2,  1.0,  1.0,  1.0,  1.0,  1.0, 99.0
 804.5,  540.0,  -0.1, -44.2,   2.0,   12.0,   -0.4,  12.0, 271.9,   5.6,  -64.721, -32.127, 999.0, 999.0,  5278.8,  1.0,  1.0,  1.0,  1.0,  1.0, 99.0
 817.5,  535.0,  -0.7, -45.6,   1.8,   11.5,   -0.4,  11.5, 272.0,   6.3,  -64.719, -32.127, 999.0, 999.0,  5354.3,  1.0,  1.0,  1.0,  1.0,  1.0, 99.0
 831.7,  530.0,  -1.3, -45.5,   1.9,   12.2,   -1.3,  12.2, 276.1,   5.3,  -64.717, -32.127, 999.0, 999.0,  5426.5,  1.0,  1.0,  1.0,  1.0,  1.0, 99.0
 845.3,  525.0,  -2.0, -45.5,   2.0,   13.0,   -1.6,  13.1, 277.0,   5.2,  -64.715, -32.127, 999.0, 999.0,  5503.3,  1.0,  1.0,  1.0,  1.0,  1.0, 99.0
 862.0,  520.0,  -2.8, -46.0,   2.0,   12.9,   -0.9,  12.9, 274.0,   5.8,  -64.713, -32.128, 999.0, 999.0,  5579.0,  1.0,  1.0,  1.0,  1.0,  1.0, 99.0
 875.7,  515.0,  -3.5, -45.6,   2.2,   12.8,   -0.7,  12.8, 273.1,   5.0,  -64.711, -32.128, 999.0, 999.0,  5654.2,  1.0,  1.0,  1.0,  1.0,  1.0, 99.0
 891.0,  510.0,  -4.2, -46.1,   2.2,   13.2,   -1.2,  13.3, 275.2,   3.6,  -64.709, -32.128, 999.0, 999.0,  5730.5,  1.0,  1.0,  1.0,  1.0,  1.0, 99.0
 909.3,  505.0,  -4.9, -46.9,   2.1,   13.7,   -1.4,  13.8, 276.0,   3.7,  -64.707, -32.128, 999.0, 999.0,  5809.8,  1.0,  1.0,  1.0,  1.0,  1.0, 99.0
 924.7,  500.0,  -5.7, -48.9,   1.8,   14.9,   -2.6,  15.1, 279.9,   2.2,  -64.704, -32.128, 999.0, 999.0,  5887.4,  1.0,  1.0,  1.0,  1.0,  1.0, 99.0
 944.0,  495.0,  -6.2, -52.7,   1.2,   15.6,   -3.0,  15.9, 280.9,   4.6,  -64.701, -32.129, 999.0, 999.0,  5964.8,  1.0,  1.0,  1.0,  1.0,  1.0, 99.0
 960.7,  490.0,  -6.6, -53.7,   1.1,   16.3,   -2.6,  16.5, 279.1,   5.9,  -64.698, -32.129, 999.0, 999.0,  6044.7,  1.0,  1.0,  1.0,  1.0,  1.0, 99.0
 976.0,  485.0,  -7.2, -53.4,   1.2,   16.8,   -2.7,  17.0, 279.1,   5.8,  -64.696, -32.130, 999.0, 999.0,  6124.2,  1.0,  1.0,  1.0,  1.0,  1.0, 99.0
 990.3,  480.0,  -7.9, -53.2,   1.3,   17.2,   -2.7,  17.4, 278.9,   5.0,  -64.693, -32.130, 999.0, 999.0,  6204.9,  1.0,  1.0,  1.0,  1.0,  1.0, 99.0
1008.7,  475.0,  -8.7, -53.1,   1.4,   17.4,   -2.8,  17.6, 279.1,   3.7,  -64.689, -32.130, 999.0, 999.0,  6286.6,  1.0,  1.0,  1.0,  1.0,  1.0, 99.0
1026.0,  470.0,  -9.5, -53.6,   1.4,   17.7,   -3.1,  18.0, 279.9,   5.5,  -64.686, -32.131, 999.0, 999.0,  6367.6,  1.0,  1.0,  1.0,  1.0,  1.0, 99.0
1043.7,  465.0, -10.3, -53.5,   1.5,   17.9,   -2.8,  18.1, 278.9,   3.9,  -64.683, -32.131, 999.0, 999.0,  6450.1,  1.0,  1.0,  1.0,  1.0,  1.0, 99.0
1062.3,  460.0, -11.0, -53.0,   1.7,   17.8,   -2.2,  17.9, 277.0,   5.8,  -64.679, -32.132, 999.0, 999.0,  6533.3,  1.0,  1.0,  1.0,  1.0,  1.0, 99.0
1077.7,  455.0, -11.7, -52.5,   1.9,   18.1,   -1.6,  18.1, 275.1,   4.4,  -64.676, -32.132, 999.0, 999.0,  6618.1,  1.0,  1.0,  1.0,  1.0,  1.0, 99.0
1097.0,  450.0, -12.1, -52.8,   1.9,   18.1,   -0.9,  18.1, 272.8,   4.1,  -64.673, -32.132, 999.0, 999.0,  6701.6,  1.0,  1.0,  1.0,  1.0,  1.0, 99.0
1117.0,  445.0, -12.6, -50.1,   2.7,   17.8,   -0.3,  17.8, 271.0,   4.1,  -64.669, -32.132, 999.0, 999.0,  6787.1,  1.0,  1.0,  1.0,  1.0,  1.0, 99.0
1137.0,  440.0, -13.2, -48.0,   3.6,   18.5,    0.0,  18.5, 270.0,   5.1,  -64.665, -32.132, 999.0, 999.0,  6874.0,  1.0,  1.0,  1.0,  1.0,  1.0, 99.0
1157.3,  435.0, -13.5, -49.4,   3.1,   18.6,   -1.0,  18.6, 273.1,   4.5,  -64.661, -32.132, 999.0, 999.0,  6960.7,  1.0,  1.0,  1.0,  1.0,  1.0, 99.0
1175.7,  430.0, -13.3, -39.2,   9.3,   17.5,   -1.2,  17.6, 273.9,   5.7,  -64.658, -32.133, 999.0, 999.0,  7046.9,  1.0,  1.0,  1.0,  1.0,  1.0, 99.0
1190.7,  425.0, -13.6, -24.5,  39.4,   17.3,   -1.5,  17.4, 275.0,   5.6,  -64.655, -32.133, 999.0, 999.0,  7138.5,  1.0,  1.0,  1.0,  1.0,  1.0, 99.0
1206.0,  420.0, -14.5, -24.6,  42.0,   18.2,   -1.3,  18.2, 274.1,   5.3,  -64.652, -32.133, 999.0, 999.0,  7227.7,  1.0,  1.0,  1.0,  1.0,  1.0, 99.0
1221.3,  415.0, -15.4, -24.7,  44.8,   18.3,   -1.0,  18.3, 273.1,   5.0,  -64.649, -32.133, 999.0, 999.0,  7317.1,  1.0,  1.0,  1.0,  1.0,  1.0, 99.0
1241.0,  410.0, -16.3, -24.6,  48.9,   17.4,   -0.9,  17.4, 273.0,   5.7,  -64.645, -32.133, 999.0, 999.0,  7410.5,  1.0,  1.0,  1.0,  1.0,  1.0, 99.0
1258.3,  405.0, -17.2, -24.9,  51.0,   17.0,   -0.3,  17.0, 271.0,   4.2,  -64.642, -32.134, 999.0, 999.0,  7501.0,  1.0,  1.0,  1.0,  1.0,  1.0, 99.0
1278.0,  400.0, -18.0, -24.1,  58.9,   17.5,    0.6,  17.5, 268.0,   5.3,  -64.638, -32.133, 999.0, 999.0,  7594.6,  1.0,  1.0,  1.0,  1.0,  1.0, 99.0
1295.0,  395.0, -18.8, -24.5,  61.0,   17.7,    1.2,  17.7, 266.1,   6.1,  -64.635, -32.133, 999.0, 999.0,  7688.9,  1.0,  1.0,  1.0,  1.0,  1.0, 99.0
1317.0,  390.0, -19.6, -23.9,  68.8,   18.3,    2.2,  18.4, 263.1,   4.0,  -64.631, -32.133, 999.0, 999.0,  7783.6,  1.0,  1.0,  1.0,  1.0,  1.0, 99.0
1339.5,  385.0, -20.4, -22.1,  86.2,   18.7,    3.0,  18.9, 261.0,   3.7,  -64.627, -32.133, 999.0, 999.0,  7879.7,  1.0,  1.0,  1.0,  1.0,  1.0, 99.0
1362.5,  380.0, -21.2, -22.2,  91.2,   19.6,    3.7,  19.9, 259.4,   4.5,  -64.622, -32.132, 999.0, 999.0,  7975.3,  1.0,  1.0,  1.0,  1.0,  1.0, 99.0
1386.0,  375.0, -22.0, -23.6,  87.2,   19.5,    2.4,  19.6, 263.0,   4.0,  -64.617, -32.131, 999.0, 999.0,  8073.2,  1.0,  1.0,  1.0,  1.0,  1.0, 99.0
1405.3,  370.0, -22.6, -23.7,  90.8,   20.9,    0.7,  20.9, 268.1,   5.8,  -64.613, -32.131, 999.0, 999.0,  8171.8,  1.0,  1.0,  1.0,  1.0,  1.0, 99.0
1423.3,  365.0, -23.3, -24.2,  92.4,   21.4,    0.7,  21.4, 268.1,   5.2,  -64.609, -32.131, 999.0, 999.0,  8271.8,  1.0,  1.0,  1.0,  1.0,  1.0, 99.0
1444.0,  360.0, -23.9, -25.8,  84.2,   21.1,    1.5,  21.2, 265.9,   4.0,  -64.604, -32.131, 999.0, 999.0,  8372.6,  1.0,  1.0,  1.0,  1.0,  1.0, 99.0
1468.0,  355.0, -24.6, -27.3,  78.2,   21.6,    1.9,  21.7, 265.0,   4.1,  -64.599, -32.130, 999.0, 999.0,  8474.3,  1.0,  1.0,  1.0,  1.0,  1.0, 99.0
1492.5,  350.0, -25.4, -28.0,  78.8,   22.1,    2.7,  22.3, 263.0,   3.6,  -64.593, -32.130, 999.0, 999.0,  8578.0,  1.0,  1.0,  1.0,  1.0,  1.0, 99.0
1517.5,  345.0, -26.2, -31.8,  59.1,   22.8,    3.6,  23.1, 261.0,   4.1,  -64.587, -32.129, 999.0, 999.0,  8681.3,  1.0,  1.0,  1.0,  1.0,  1.0, 99.0
1544.0,  340.0, -27.0, -30.6,  71.4,   23.4,    3.7,  23.7, 261.0,   4.7,  -64.581, -32.128, 999.0, 999.0,  8786.6,  1.0,  1.0,  1.0,  1.0,  1.0, 99.0
1570.5,  335.0, -28.0, -30.2,  80.9,   23.9,    3.8,  24.2, 261.0,   4.9,  -64.574, -32.127, 999.0, 999.0,  8894.5,  1.0,  1.0,  1.0,  1.0,  1.0, 99.0
1596.5,  330.0, -28.9, -31.1,  80.6,   24.6,    4.3,  25.0, 260.1,   3.8,  -64.567, -32.126, 999.0, 999.0,  9000.6,  1.0,  1.0,  1.0,  1.0,  1.0, 99.0
1617.7,  325.0, -29.8, -30.3,  95.2,   25.3,    4.0,  25.6, 261.0,   5.9,  -64.562, -32.125, 999.0, 999.0,  9110.3,  1.0,  1.0,  1.0,  1.0,  1.0, 99.0
1638.7,  320.0, -30.5, -32.3,  84.5,   24.6,    3.9,  24.9, 261.0,   5.8,  -64.556, -32.125, 999.0, 999.0,  9221.1,  1.0,  1.0,  1.0,  1.0,  1.0, 99.0
1659.3,  315.0, -31.3, -34.2,  75.4,   24.1,    3.4,  24.3, 262.0,   5.0,  -64.551, -32.124, 999.0, 999.0,  9333.4,  1.0,  1.0,  1.0,  1.0,  1.0, 99.0
1681.5,  310.0, -32.3, -34.6,  79.8,   24.2,    3.0,  24.4, 262.9,   4.9,  -64.545, -32.123, 999.0, 999.0,  9444.5,  1.0,  1.0,  1.0,  1.0,  1.0, 99.0
1708.0,  305.0, -33.3, -36.1,  75.6,   24.9,    3.5,  25.1, 262.0,   4.0,  -64.538, -32.123, 999.0, 999.0,  9559.8,  1.0,  1.0,  1.0,  1.0,  1.0, 99.0
1735.5,  300.0, -34.3, -36.8,  78.2,   24.8,    4.4,  25.2, 259.9,   4.3,  -64.531, -32.122, 999.0, 999.0,  9676.6,  1.0,  1.0,  1.0,  1.0,  1.0, 99.0
1763.0,  295.0, -35.1, -41.0,  54.8,   25.1,    4.0,  25.4, 260.9,   4.0,  -64.523, -32.121, 999.0, 999.0,  9795.0,  1.0,  1.0,  1.0,  1.0,  1.0, 99.0
1791.0,  290.0, -36.1, -41.2,  59.4,   24.8,    3.5,  25.0, 262.0,   4.9,  -64.516, -32.120, 999.0, 999.0,  9914.1,  1.0,  1.0,  1.0,  1.0,  1.0, 99.0
1818.5,  285.0, -37.2, -42.5,  57.9,   24.8,    3.5,  25.0, 262.0,   4.4,  -64.509, -32.119, 999.0, 999.0, 10033.1,  1.0,  1.0,  1.0,  1.0,  1.0, 99.0
1845.0,  280.0, -38.1, -44.8,  49.2,   26.0,    3.2,  26.2, 263.0,   3.9,  -64.502, -32.118, 999.0, 999.0, 10154.1,  1.0,  1.0,  1.0,  1.0,  1.0, 99.0
1872.0,  275.0, -39.2, -46.2,  47.4,   26.6,    3.7,  26.9, 262.1,   3.5,  -64.494, -32.117, 999.0, 999.0, 10277.0,  1.0,  1.0,  1.0,  1.0,  1.0, 99.0
1897.3,  270.0, -40.3, -47.4,  46.8,   27.2,    4.3,  27.5, 261.0,   6.6,  -64.487, -32.116, 999.0, 999.0, 10403.8,  1.0,  1.0,  1.0,  1.0,  1.0, 99.0
1919.5,  265.0, -41.5, -49.8,  40.2,   27.6,    4.9,  28.0, 259.9,   5.4,  -64.481, -32.116, 999.0, 999.0, 10529.7,  1.0,  1.0,  1.0,  1.0,  1.0, 99.0
1942.0,  260.0, -42.5, -52.0,  34.5,   28.4,    5.5,  28.9, 259.0,   5.2,  -64.474, -32.115, 999.0, 999.0, 10657.8,  1.0,  1.0,  1.0,  1.0,  1.0, 99.0
1962.7,  255.0, -43.5, -53.6,  32.0,   29.5,    4.7,  29.8, 260.9,   7.0,  -64.467, -32.114, 999.0, 999.0, 10791.3,  1.0,  1.0,  1.0,  1.0,  1.0, 99.0
1982.0,  250.0, -44.5, -55.5,  28.2,   33.0,    4.0,  33.2, 263.1,   6.4,  -64.461, -32.113, 999.0, 999.0, 10923.4,  1.0,  1.0,  1.0,  1.0,  1.0, 99.0
2011.0,  245.0, -45.3, -58.1,  22.4,   36.2,    4.4,  36.5, 263.1,   4.4,  -64.450, -32.112, 999.0, 999.0, 11059.4,  1.0,  1.0,  1.0,  1.0,  1.0, 99.0
2043.5,  240.0, -45.8, -61.4,  15.5,   38.0,    5.3,  38.4, 262.1,   3.9,  -64.438, -32.110, 999.0, 999.0, 11195.0,  1.0,  1.0,  1.0,  1.0,  1.0, 99.0
