Time,Press,Temp,Dewpt,RH,Ucmp,Vcmp,spd,dir,Wcm, Lon,Lat,Ele,Azi,Alt, Qp,Qt,Qr, Qu,Qv,Qd
   0.0,  889.2,  20.0,  10.4,  54.0,    2.0,   -0.4,   2.0, 281.0,   0.0,  -64.730, -32.130, 999.0, 999.0,  1139.4,  2.0,  2.0,  2.0,  1.0,  1.0, 99.0
   6.8,  885.0,  18.7,   9.0,  53.2,    3.2,    0.2,   3.2, 266.4,   5.3,  -64.730, -32.130, 999.0, 999.0,  1180.3,  1.0,  1.0,  1.0,  1.0,  1.0, 99.0
  16.7,  880.0,  18.2,   8.7,  53.7,    3.7,    0.3,   3.7, 265.4,   5.7,  -64.729, -32.130, 999.0, 999.0,  1229.9,  1.0,  1.0,  1.0,  1.0,  1.0, 99.0
  27.5,  875.0,  17.8,   8.7,  55.4,    3.3,   -0.1,   3.3, 270.9,   5.6,  -64.729, -32.130, 999.0, 999.0,  1277.2,  1.0,  1.0,  1.0,  1.0,  1.0, 99.0
  36.2,  870.0,  17.3,   8.4,  55.8,    3.3,   -0.4,   3.3, 277.3,   4.0,  -64.729, -32.130, 999.0, 999.0,  1325.8,  1.0,  1.0,  1.0,  1.0,  1.0, 99.0
  47.0,  865.0,  16.9,   8.4,  57.2,    4.1,   -0.5,   4.1, 277.0,   4.3,  -64.728, -32.130, 999.0, 999.0,  1375.9,  1.0,  1.0,  1.0,  1.0,  1.0, 99.0
  59.0,  860.0,  16.4,   8.2,  58.3,    4.9,    0.1,   4.9, 268.8,   5.6,  -64.728, -32.130, 999.0, 999.0,  1425.1,  1.0,  1.0,  1.0,  1.0,  1.0, 99.0
  69.8,  855.0,  15.9,   8.3,  60.5,    5.2,    0.5,   5.2, 264.5,   4.4,  -64.727, -32.130, 999.0, 999.0,  1472.2,  1.0,  1.0,  1.0,  1.0,  1.0, 99.0
  79.6,  850.0,  15.4,   8.0,  61.4,    5.4,    0.3,   5.4, 266.4,   5.0,  -64.727, -32.130, 999.0, 999.0,  1524.1,  1.0,  1.0,  1.0,  1.0,  1.0, 99.0
  89.3,  845.0,  14.9,   8.0,  63.4,    5.5,    0.2,   5.5, 267.9,   5.9,  -64.726, -32.130, 999.0, 999.0,  1573.8,  1.0,  1.0,  1.0,  1.0,  1.0, 99.0
  98.2,  840.0,  14.4,   7.8,  64.6,    5.4,    0.5,   5.4, 264.5,   5.1,  -64.726, -32.130, 999.0, 999.0,  1624.8,  1.0,  1.0,  1.0,  1.0,  1.0, 99.0
 108.0,  835.0,  14.1,   7.7,  65.4,    5.3,    1.1,   5.4, 258.3,   4.7,  -64.725, -32.130, 999.0, 999.0,  1674.1,  1.0,  1.0,  1.0,  1.0,  1.0, 99.0
 118.2,  830.0,  13.6,   7.6,  66.9,    5.0,    1.9,   5.4, 249.0,   4.6,  -64.724, -32.130, 999.0, 999.0,  1726.1,  1.0,  1.0,  1.0,  1.0,  1.0, 99.0
 128.4,  825.0,  13.3,   6.5,  63.4,    4.8,    3.1,   5.7, 236.6,   3.1,  -64.724, -32.129, 999.0, 999.0,  1776.2,  1.0,  1.0,  1.0,  1.0,  1.0, 99.0
 139.0,  820.0,  12.9,   6.0,  62.8,    4.4,    3.8,   5.8, 229.2,   5.1,  -64.723, -32.129, 999.0, 999.0,  1828.1,  1.0,  1.0,  1.0,  1.0,  1.0, 99.0
 149.4,  815.0,  12.4,   6.1,  65.6,    4.0,    4.0,   5.7, 225.0,   5.0,  -64.723, -32.129, 999.0, 999.0,  1879.0,  1.0,  1.0,  1.0,  1.0,  1.0, 99.0
 159.4,  810.0,  12.0,   6.0,  66.7,    4.2,    4.1,   5.9, 225.7,   6.2,  -64.722, -32.128, 999.0, 999.0,  1930.6,  1.0,  1.0,  1.0,  1.0,  1.0, 99.0
 169.0,  805.0,  11.5,   6.0,  69.0,    4.8,    4.5,   6.6, 226.8,   4.2,  -64.722, -32.128, 999.0, 999.0,  1982.5,  1.0,  1.0,  1.0,  1.0,  1.0, 99.0
 179.4,  800.0,  11.0,   5.6,  69.2,    5.0,    4.9,   7.0, 225.3,   4.7,  -64.721, -32.128, 999.0, 999.0,  2034.6,  1.0,  1.0,  1.0,  1.0,  1.0, 99.0
 189.6,  795.0,  10.6,   5.1,  68.4,    4.8,    5.7,   7.5, 220.1,   6.1,  -64.721, -32.127, 999.0, 999.0,  2087.4,  1.0,  1.0,  1.0,  1.0,  1.0, 99.0
 198.8,  790.0,  10.0,   5.2,  71.7,    4.6,    6.3,   7.8, 216.1,   4.9,  -64.720, -32.127, 999.0, 999.0,  2139.5,  1.0,  1.0,  1.0,  1.0,  1.0, 99.0
 208.0,  785.0,   9.4,   5.2,  75.0,    4.6,    6.6,   8.0, 214.9,   6.1,  -64.720, -32.126, 999.0, 999.0,  2193.1,  1.0,  1.0,  1.0,  1.0,  1.0, 99.0
 218.5,  780.0,   8.9,   5.1,  77.2,    5.1,    6.8,   8.5, 216.9,   4.2,  -64.719, -32.125, 999.0, 999.0,  2246.3,  1.0,  1.0,  1.0,  1.0,  1.0, 99.0
 230.5,  775.0,   8.7,   4.2,  73.3,    5.7,    7.2,   9.2, 218.1,   4.8,  -64.719, -32.125, 999.0, 999.0,  2297.7,  1.0,  1.0,  1.0,  1.0,  1.0, 99.0
 242.3,  770.0,   8.4,   3.9,  73.2,    5.6,    7.4,   9.2, 217.1,   6.6,  -64.718, -32.124, 999.0, 999.0,  2351.6,  1.0,  1.0,  1.0,  1.0,  1.0, 99.0
 252.4,  765.0,   7.9,   3.6,  74.5,    5.2,    6.7,   8.4, 218.0,   7.7,  -64.717, -32.123, 999.0, 999.0,  2406.1,  1.0,  1.0,  1.0,  1.0,  1.0, 99.0
 263.0,  760.0,   7.5,   3.3,  74.9,    4.7,    5.6,   7.3, 220.0,   5.0,  -64.717, -32.123, 999.0, 999.0,  2461.0,  1.0,  1.0,  1.0,  1.0,  1.0, 99.0
 274.2,  755.0,   7.0,   3.3,  77.5,    4.6,    5.1,   6.9, 222.0,   4.9,  -64.716, -32.122, 999.0, 999.0,  2514.7,  1.0,  1.0,  1.0,  1.0,  1.0, 99.0
 285.6,  750.0,   6.5,   3.2,  79.1,    5.3,    5.6,   7.7, 223.2,   5.0,  -64.716, -32.122, 999.0, 999.0,  2568.4,  1.0,  1.0,  1.0,  1.0,  1.0, 99.0
 296.7,  745.0,   6.0,   3.0,  80.9,    5.9,    5.7,   8.2, 226.0,   3.4,  -64.715, -32.121, 999.0, 999.0,  2624.5,  1.0,  1.0,  1.0,  1.0,  1.0, 99.0
 307.7,  740.0,   5.5,   2.9,  83.1,    5.8,    5.1,   7.7, 228.7,   4.1,  -64.714, -32.121, 999.0, 999.0,  2679.6,  1.0,  1.0,  1.0,  1.0,  1.0, 99.0
 317.8,  735.0,   5.1,   2.9,  85.6,    5.3,    4.9,   7.2, 227.4,   7.0,  -64.714, -32.120, 999.0, 999.0,  2733.4,  1.0,  1.0,  1.0,  1.0,  1.0, 99.0
 327.3,  730.0,   4.5,   2.8,  88.8,    4.8,    5.0,   6.9, 223.8,   6.4,  -64.713, -32.120, 999.0, 999.0,  2790.2,  1.0,  1.0,  1.0,  1.0,  1.0, 99.0
 339.3,  725.0,   3.9,   2.7,  92.1,    4.4,    4.4,   6.2, 225.0,   2.8,  -64.713, -32.119, 999.0, 999.0,  2847.8,  1.0,  1.0,  1.0,  1.0,  1.0, 99.0
 352.0,  720.0,   3.4,   2.7,  95.1,    4.8,    4.1,   6.3, 229.5,   4.3,  -64.712, -32.119, 999.0, 999.0,  2902.4,  1.0,  1.0,  1.0,  1.0,  1.0, 99.0
 365.0,  715.0,   2.9,   2.5,  97.1,    5.6,    4.5,   7.2, 231.2,   4.9,  -64.711, -32.118, 999.0, 999.0,  2960.3,  1.0,  1.0,  1.0,  1.0,  1.0, 99.0
 376.4,  710.0,   2.4,   2.2,  98.6,    6.2,    5.0,   8.0, 231.1,   7.8,  -64.711, -32.118, 999.0, 999.0,  3017.0,  1.0,  1.0,  1.0,  1.0,  1.0, 99.0
 388.7,  705.0,   1.9,   1.3,  95.4,    5.9,    5.4,   8.0, 227.5,   4.2,  -64.710, -32.117, 999.0, 999.0,  3072.4,  1.0,  1.0,  1.0,  1.0,  1.0, 99.0
 400.0,  700.0,   1.5,   0.7,  94.4,    5.6,    5.3,   7.7, 226.6,   7.4,  -64.709, -32.117, 999.0, 999.0,  3132.5,  1.0,  1.0,  1.0,  1.0,  1.0, 99.0
 411.7,  695.0,   1.0,   0.2,  94.4,    6.1,    5.1,   7.9, 229.8,   5.2,  -64.708, -32.116, 999.0, 999.0,  3190.0,  1.0,  1.0,  1.0,  1.0,  1.0, 99.0
 423.0,  690.0,   0.5,   0.0,  96.6,    6.6,    5.3,   8.5, 231.2,   4.2,  -64.708, -32.115, 999.0, 999.0,  3247.9,  1.0,  1.0,  1.0,  1.0,  1.0, 99.0
 435.3,  685.0,   0.2,  -1.2,  90.1,    7.7,    5.6,   9.5, 234.1,   3.4,  -64.707, -32.115, 999.0, 999.0,  3305.7,  1.0,  1.0,  1.0,  1.0,  1.0, 99.0
 446.5,  680.0,  -0.2,  -0.9,  94.4,    8.5,    5.6,  10.1, 236.7,   4.0,  -64.706, -32.114, 999.0, 999.0,  3364.8,  1.0,  1.0,  1.0,  1.0,  1.0, 99.0
 457.8,  675.0,  -0.6,  -1.0,  96.6,    8.6,    4.8,   9.8, 240.8,   5.8,  -64.705, -32.114, 999.0, 999.0,  3424.8,  1.0,  1.0,  1.0,  1.0,  1.0, 99.0
 469.3,  670.0,  -1.0,  -1.2,  98.7,    8.9,    3.9,   9.7, 246.3,   4.0,  -64.704, -32.113, 999.0, 999.0,  3484.5,  1.0,  1.0,  1.0,  1.0,  1.0, 99.0
 482.0,  665.0,  -1.4,  -1.4, 100.0,    9.8,    3.6,  10.4, 249.8,   5.6,  -64.702, -32.113, 999.0, 999.0,  3542.6,  1.0,  1.0,  1.0,  1.0,  1.0, 99.0
 494.5,  660.0,  -1.8,  -1.8,  99.9,    9.6,    2.3,   9.9, 256.6,   3.8,  -64.701, -32.113, 999.0, 999.0,  3605.0,  1.0,  1.0,  1.0,  1.0,  1.0, 99.0
 507.7,  655.0,  -2.0,  -2.5,  96.6,    9.3,    1.3,   9.4, 262.0,   6.7,  -64.700, -32.112, 999.0, 999.0,  3664.2,  1.0,  1.0,  1.0,  1.0,  1.0, 99.0
 520.3,  650.0,  -2.4,  -3.1,  94.8,   10.0,    2.5,  10.3, 256.0,   4.0,  -64.699, -32.112, 999.0, 999.0,  3724.2,  1.0,  1.0,  1.0,  1.0,  1.0, 99.0
 533.0,  645.0,  -2.5,  -4.1,  88.8,   11.3,    3.9,  12.0, 251.0,   3.8,  -64.697, -32.112, 999.0, 999.0,  3782.8,  1.0,  1.0,  1.0,  1.0,  1.0, 99.0
 544.3,  640.0,  -2.7,  -4.9,  84.5,   12.2,    4.4,  13.0, 250.1,   6.2,  -64.696, -32.111, 999.0, 999.0,  3848.6,  1.0,  1.0,  1.0,  1.0,  1.0, 99.0
 555.4,  635.0,  -2.6,  -7.3,  70.2,   13.4,    5.3,  14.4, 248.5,   6.2,  -64.694, -32.111, 999.0, 999.0,  3910.2,  1.0,  1.0,  1.0,  1.0,  1.0, 99.0
 566.6,  630.0,  -2.3, -10.2,  54.6,   14.4,    6.0,  15.6, 247.4,   6.0,  -64.692, -32.110, 999.0, 999.0,  3972.0,  1.0,  1.0,  1.0,  1.0,  1.0, 99.0
 577.8,  625.0,  -2.4, -12.3,  46.7,   14.7,    6.5,  16.1, 246.1,   6.1,  -64.691, -32.110, 999.0, 999.0,  4035.0,  1.0,  1.0,  1.0,  1.0,  1.0, 99.0
 589.0,  620.0,  -2.9, -12.6,  47.1,   15.2,    7.1,  16.8, 245.0,   4.5,  -64.689, -32.109, 999.0, 999.0,  4098.9,  1.0,  1.0,  1.0,  1.0,  1.0, 99.0
 600.8,  615.0,  -3.4, -13.4,  45.8,   16.0,    7.5,  17.7, 244.9,   7.1,  -64.687, -32.108, 999.0, 999.0,  4164.1,  1.0,  1.0,  1.0,  1.0,  1.0, 99.0
 611.6,  610.0,  -3.9, -14.3,  44.1,   16.5,    7.0,  17.9, 247.0,   6.4,  -64.685, -32.108, 999.0, 999.0,  4227.7,  1.0,  1.0,  1.0,  1.0,  1.0, 99.0
 622.5,  605.0,  -4.5, -14.5,  45.5,   16.7,    6.6,  17.9, 248.5,   5.0,  -64.683, -32.107, 999.0, 999.0,  4292.5,  1.0,  1.0,  1.0,  1.0,  1.0, 99.0
 633.3,  600.0,  -5.0, -15.5,  43.5,   17.2,    6.6,  18.4, 249.0,   6.3,  -64.681, -32.106, 999.0, 999.0,  4357.3,  1.0,  1.0,  1.0,  1.0,  1.0, 99.0
 643.6,  595.0,  -5.6, -16.3,  42.7,   17.9,    6.9,  19.2, 248.9,   6.0,  -64.679, -32.106, 999.0, 999.0,  4423.6,  1.0,  1.0,  1.0,  1.0,  1.0, 99.0
 653.4,  590.0,  -6.1, -17.6,  39.6,   18.5,    7.1,  19.9, 249.0,   7.0,  -64.678, -32.105, 999.0, 999.0,  4490.0,  1.0,  1.0,  1.0,  1.0,  1.0, 99.0
 664.5,  585.0,  -6.7, -19.3,  35.8,   19.5,    7.1,  20.8, 250.0,   6.6,  -64.675, -32.104, 999.0, 999.0,  4555.6,  1.0,  1.0,  1.0,  1.0,  1.0, 99.0
 676.6,  580.0,  -7.3, -19.8,  36.0,   20.9,    7.2,  22.1, 251.0,   5.1,  -64.673, -32.103, 999.0, 999.0,  4623.5,  1.0,  1.0,  1.0,  1.0,  1.0, 99.0
 691.5,  575.0,  -7.8, -21.2,  33.4,   22.2,    7.2,  23.3, 252.0,   3.2,  -64.669, -32.103, 999.0, 999.0,  4690.0,  1.0,  1.0,  1.0,  1.0,  1.0, 99.0
 705.7,  570.0,  -8.4, -22.0,  32.3,   22.6,    6.9,  23.6, 253.0,   4.1,  -64.666, -32.102, 999.0, 999.0,  4758.6,  1.0,  1.0,  1.0,  1.0,  1.0, 99.0
 725.3,  565.0,  -8.7, -26.3,  22.8,   22.7,    7.4,  23.9, 251.9,   2.3,  -64.661, -32.100, 999.0, 999.0,  4827.4,  1.0,  1.0,  1.0,  1.0,  1.0, 99.0
 749.5,  560.0,  -8.9, -33.3,  11.8,   23.2,    6.2,  24.0, 255.0,   2.2,  -64.655, -32.099, 999.0, 999.0,  4896.6,  1.0,  1.0,  1.0,  1.0,  1.0, 99.0
 775.0,  555.0,  -7.8, -39.3,   6.0,   24.8,    3.5,  25.0, 262.0,   3.2,  -64.649, -32.098, 999.0, 999.0,  4965.6,  1.0,  1.0,  1.0,  1.0,  1.0, 99.0
 803.0,  550.0,  -6.7, -39.1,   5.6,   25.4,    3.6,  25.7, 261.9,   1.8,  -64.641, -32.097, 999.0, 999.0,  5034.8,  1.0,  1.0,  1.0,  1.0,  1.0, 99.0
 826.0,  545.0,  -7.3, -39.9,   5.4,   25.1,    3.1,  25.3, 263.0,   5.0,  -64.635, -32.096, 999.0, 999.0,  5107.5,  1.0,  1.0,  1.0,  1.0,  1.0, 99.0
 842.6,  540.0,  -7.8, -41.4,   4.8,   24.3,    0.4,  24.3, 269.1,   5.6,  -64.631, -32.096, 999.0, 999.0,  5179.0,  1.0,  1.0,  1.0,  1.0,  1.0, 99.0
 856.7,  535.0,  -7.7, -44.0,   3.6,   23.9,   -2.9,  24.1, 276.9,   5.8,  -64.627, -32.096, 999.0, 999.0,  5250.7,  1.0,  1.0,  1.0,  1.0,  1.0, 99.0
 869.3,  530.0,  -7.7, -46.3,   2.8,   23.9,   -4.6,  24.4, 280.9,   6.3,  -64.624, -32.097, 999.0, 999.0,  5324.6,  1.0,  1.0,  1.0,  1.0,  1.0, 99.0
 881.7,  525.0,  -8.2, -47.0,   2.7,   24.4,   -5.2,  24.9, 282.0,   4.7,  -64.621, -32.097, 999.0, 999.0,  5396.0,  1.0,  1.0,  1.0,  1.0,  1.0, 99.0
 895.3,  520.0,  -9.0, -47.2,   2.8,   24.4,   -6.5,  25.3, 284.9,   7.6,  -64.617, -32.098, 999.0, 999.0,  5470.8,  1.0,  1.0,  1.0,  1.0,  1.0, 99.0
 909.5,  515.0,  -9.6, -47.7,   2.8,   24.5,   -8.7,  25.9, 289.5,   6.8,  -64.614, -32.099, 999.0, 999.0,  5545.2,  1.0,  1.0,  1.0,  1.0,  1.0, 99.0
 925.3,  510.0, -10.1, -48.7,   2.6,   24.5,   -9.9,  26.4, 292.0,   5.2,  -64.610, -32.100, 999.0, 999.0,  5621.1,  1.0,  1.0,  1.0,  1.0,  1.0, 99.0
 939.7,  505.0, -10.7, -49.1,   2.6,   24.7,  -10.8,  27.0, 293.7,   4.7,  -64.606, -32.102, 999.0, 999.0,  5696.6,  1.0,  1.0,  1.0,  1.0,  1.0, 99.0
 953.0,  500.0, -10.9, -51.1,   2.1,   25.9,  -11.6,  28.4, 294.1,   5.3,  -64.602, -32.103, 999.0, 999.0,  5774.2,  1.0,  1.0,  1.0,  1.0,  1.0, 99.0
 967.3,  495.0, -10.8, -51.8,   1.9,   26.7,  -11.3,  29.0, 292.9,   5.7,  -64.598, -32.104, 999.0, 999.0,  5850.4,  1.0,  1.0,  1.0,  1.0,  1.0, 99.0
 980.5,  490.0, -11.3, -51.8,   2.0,   26.8,  -10.8,  28.9, 291.9,   6.5,  -64.595, -32.106, 999.0, 999.0,  5928.0,  1.0,  1.0,  1.0,  1.0,  1.0, 99.0
 993.3,  485.0, -11.9, -52.6,   1.9,   26.6,  -11.0,  28.8, 292.4,   6.2,  -64.591, -32.107, 999.0, 999.0,  6006.2,  1.0,  1.0,  1.0,  1.0,  1.0, 99.0
1007.0,  480.0, -12.3, -53.3,   1.8,   25.6,  -12.5,  28.5, 296.0,   4.7,  -64.587, -32.108, 999.0, 999.0,  6085.9,  1.0,  1.0,  1.0,  1.0,  1.0, 99.0
1020.7,  475.0, -13.1, -53.4,   1.9,   25.1,  -13.9,  28.7, 299.0,   5.9,  -64.583, -32.110, 999.0, 999.0,  6166.0,  1.0,  1.0,  1.0,  1.0,  1.0, 99.0
1034.8,  470.0, -13.5, -54.6,   1.7,   25.7,  -14.3,  29.4, 299.1,   5.7,  -64.580, -32.112, 999.0, 999.0,  6245.3,  1.0,  1.0,  1.0,  1.0,  1.0, 99.0
1047.7,  465.0, -14.0, -55.5,   1.6,   26.1,  -14.4,  29.8, 298.9,   5.8,  -64.576, -32.114, 999.0, 999.0,  6328.3,  1.0,  1.0,  1.0,  1.0,  1.0, 99.0
1061.5,  460.0, -14.4, -56.3,   1.5,   26.7,  -14.1,  30.2, 298.0,   5.8,  -64.572, -32.115, 999.0, 999.0,  6410.0,  1.0,  1.0,  1.0,  1.0,  1.0, 99.0
1076.3,  455.0, -14.9, -56.6,   1.5,   27.0,  -13.8,  30.3, 297.1,   5.8,  -64.568, -32.117, 999.0, 999.0,  6491.8,  1.0,  1.0,  1.0,  1.0,  1.0, 99.0
1091.3,  450.0, -15.6, -56.5,   1.6,   27.1,  -13.2,  30.1, 296.0,   6.2,  -64.564, -32.119, 999.0, 999.0,  6575.6,  1.0,  1.0,  1.0,  1.0,  1.0, 99.0
1106.0,  445.0, -16.3, -57.0,   1.6,   27.0,  -13.2,  30.1, 296.1,   5.2,  -64.559, -32.121, 999.0, 999.0,  6660.0,  1.0,  1.0,  1.0,  1.0,  1.0, 99.0
1124.0,  440.0, -17.0, -57.0,   1.7,   27.7,  -12.9,  30.6, 295.0,   3.8,  -64.554, -32.123, 999.0, 999.0,  6745.1,  1.0,  1.0,  1.0,  1.0,  1.0, 99.0
1141.7,  435.0, -17.8, -57.5,   1.7,   28.3,  -12.6,  31.0, 294.0,   4.9,  -64.549, -32.125, 999.0, 999.0,  6830.4,  1.0,  1.0,  1.0,  1.0,  1.0, 99.0
1160.0,  430.0, -18.2, -57.4,   1.8,   27.9,  -13.0,  30.8, 295.0,   5.1,  -64.543, -32.127, 999.0, 999.0,  6916.2,  1.0,  1.0,  1.0,  1.0,  1.0, 99.0
1180.0,  425.0, -19.0, -57.5,   1.9,   27.6,  -13.5,  30.7, 296.1,   4.5,  -64.538, -32.129, 999.0, 999.0,  7004.6,  1.0,  1.0,  1.0,  1.0,  1.0, 99.0
1200.0,  420.0, -19.7, -56.8,   2.2,   28.2,  -13.8,  31.4, 296.1,   3.8,  -64.532, -32.132, 999.0, 999.0,  7091.8,  1.0,  1.0,  1.0,  1.0,  1.0, 99.0
1219.7,  415.0, -20.6, -56.4,   2.5,   28.2,  -14.3,  31.6, 296.9,   4.2,  -64.526, -32.134, 999.0, 999.0,  7180.7,  1.0,  1.0,  1.0,  1.0,  1.0, 99.0
1240.5,  410.0, -21.4, -56.5,   2.7,   28.3,  -14.4,  31.8, 297.0,   4.9,  -64.520, -32.137, 999.0, 999.0,  7271.3,  1.0,  1.0,  1.0,  1.0,  1.0, 99.0
1261.5,  405.0, -22.3, -56.6,   2.8,   27.8,  -14.8,  31.4, 298.0,   4.0,  -64.513, -32.140, 999.0, 999.0,  7360.7,  1.0,  1.0,  1.0,  1.0,  1.0, 99.0
1284.3,  400.0, -22.9, -57.1,   2.8,   28.1,  -13.7,  31.3, 296.0,   2.5,  -64.507, -32.142, 999.0, 999.0,  7452.5,  1.0,  1.0,  1.0,  1.0,  1.0, 99.0
1307.0,  395.0, -23.6, -54.1,   4.3,   28.3,  -14.4,  31.8, 297.0,   4.0,  -64.500, -32.145, 999.0, 999.0,  7543.1,  1.0,  1.0,  1.0,  1.0,  1.0, 99.0
1329.0,  390.0, -24.5, -54.0,   4.7,   28.5,  -15.2,  32.3, 298.1,   4.4,  -64.493, -32.148, 999.0, 999.0,  7635.7,  1.0,  1.0,  1.0,  1.0,  1.0, 99.0
1351.0,  385.0, -25.2, -54.9,   4.5,   29.0,  -14.8,  32.6, 297.0,   4.5,  -64.486, -32.151, 999.0, 999.0,  7730.2,  1.0,  1.0,  1.0,  1.0,  1.0, 99.0
1373.3,  380.0, -25.9, -56.3,   4.1,   28.9,  -14.1,  32.2, 296.0,   3.9,  -64.480, -32.154, 999.0, 999.0,  7824.2,  1.0,  1.0,  1.0,  1.0,  1.0, 99.0
1395.0,  375.0, -26.5, -57.9,   3.5,   29.1,  -14.2,  32.4, 296.0,   4.2,  -64.473, -32.157, 999.0, 999.0,  7920.4,  1.0,  1.0,  1.0,  1.0,  1.0, 99.0
1418.0,  370.0, -27.1, -59.3,   3.1,   29.4,  -13.7,  32.4, 295.0,   5.3,  -64.466, -32.160, 999.0, 999.0,  8017.4,  1.0,  1.0,  1.0,  1.0,  1.0, 99.0
1440.0,  365.0, -28.1, -60.0,   3.1,   29.4,  -13.7,  32.4, 295.0,   5.2,  -64.459, -32.162, 999.0, 999.0,  8116.9,  1.0,  1.0,  1.0,  1.0,  1.0, 99.0
1462.5,  360.0, -29.0, -60.4,   3.2,   29.6,  -13.8,  32.7, 295.0,   5.1,  -64.452, -32.165, 999.0, 999.0,  8214.0,  1.0,  1.0,  1.0,  1.0,  1.0, 99.0
1485.0,  355.0, -29.9, -61.1,   3.2,   30.3,  -14.1,  33.4, 295.0,   3.8,  -64.445, -32.168, 999.0, 999.0,  8313.4,  1.0,  1.0,  1.0,  1.0,  1.0, 99.0
1508.0,  350.0, -30.8, -61.3,   3.4,   30.2,  -14.1,  33.3, 295.0,   5.0,  -64.437, -32.171, 999.0, 999.0,  8414.9,  1.0,  1.0,  1.0,  1.0,  1.0, 99.0
1529.0,  345.0, -31.6, -60.4,   4.1,   30.5,  -14.2,  33.6, 295.0,   5.6,  -64.431, -32.174, 999.0, 999.0,  8517.7,  1.0,  1.0,  1.0,  1.0,  1.0, 99.0
1548.7,  340.0, -32.4, -60.8,   4.2,   30.2,  -14.7,  33.6, 296.0,   4.9,  -64.424, -32.176, 999.0, 999.0,  8619.8,  1.0,  1.0,  1.0,  1.0,  1.0, 99.0
1569.0,  335.0, -33.3, -61.5,   4.2,   30.3,  -14.8,  33.7, 296.0,   5.4,  -64.418, -32.179, 999.0, 999.0,  8723.5,  1.0,  1.0,  1.0,  1.0,  1.0, 99.0
1590.0,  330.0, -34.1, -61.7,   4.4,   30.3,  -14.8,  33.7, 296.0,   5.8,  -64.411, -32.182, 999.0, 999.0,  8829.8,  1.0,  1.0,  1.0,  1.0,  1.0, 99.0
1611.3,  325.0, -35.1, -62.0,   4.7,   30.6,  -14.5,  33.9, 295.3,   5.2,  -64.404, -32.185, 999.0, 999.0,  8935.9,  1.0,  1.0,  1.0,  1.0,  1.0, 99.0
1633.0,  320.0, -36.2, -62.2,   5.1,   30.6,  -14.9,  34.0, 296.0,   3.5,  -64.397, -32.187, 999.0, 999.0,  9043.8,  1.0,  1.0,  1.0,  1.0,  1.0, 99.0
1656.5,  315.0, -37.2, -62.3,   5.5,   30.9,  -15.1,  34.4, 296.0,   4.8,  -64.389, -32.191, 999.0, 999.0,  9153.5,  1.0,  1.0,  1.0,  1.0,  1.0, 99.0
1680.0,  310.0, -38.1, -61.0,   7.2,   30.7,  -16.3,  34.8, 298.0,   4.4,  -64.382, -32.194, 999.0, 999.0,  9262.4,  1.0,  1.0,  1.0,  1.0,  1.0, 99.0
1702.0,  305.0, -39.1, -58.0,  11.7,   31.3,  -16.7,  35.5, 298.1,   5.5,  -64.374, -32.197, 999.0, 999.0,  9374.1,  1.0,  1.0,  1.0,  1.0,  1.0, 99.0
1727.5,  300.0, -40.0, -58.9,  11.4,   32.2,  -16.8,  36.3, 297.5,   4.7,  -64.366, -32.201, 999.0, 999.0,  9488.2,  1.0,  1.0,  1.0,  1.0,  1.0, 99.0
1752.5,  295.0, -40.7, -58.1,  13.6,   33.5,  -17.1,  37.6, 297.0,   5.5,  -64.357, -32.205, 999.0, 999.0,  9602.5,  1.0,  1.0,  1.0,  1.0,  1.0, 99.0
1779.5,  290.0, -41.6, -57.1,  17.0,   34.0,  -18.1,  38.5, 298.0,   5.2,  -64.348, -32.209, 999.0, 999.0,  9717.3,  1.0,  1.0,  1.0,  1.0,  1.0, 99.0
1807.0,  285.0, -42.6, -57.1,  18.9,   34.3,  -18.2,  38.8, 298.0,   3.9,  -64.337, -32.214, 999.0, 999.0,  9836.9,  1.0,  1.0,  1.0,  1.0,  1.0, 99.0
1836.5,  280.0, -43.6, -57.8,  19.3,   34.5,  -17.6,  38.7, 297.0,   4.8,  -64.327, -32.218, 999.0, 999.0,  9954.7,  1.0,  1.0,  1.0,  1.0,  1.0, 99.0
1864.0,  275.0, -44.3, -58.8,  18.4,   35.0,  -17.8,  39.3, 297.0,   4.6,  -64.316, -32.223, 999.0, 999.0, 10074.4,  1.0,  1.0,  1.0,  1.0,  1.0, 99.0
1893.0,  270.0, -45.0, -58.4,  20.7,   34.9,  -17.8,  39.2, 297.0,   3.0,  -64.305, -32.227, 999.0, 999.0, 10198.3,  1.0,  1.0,  1.0,  1.0,  1.0, 99.0
1923.0,  265.0, -45.7, -60.1,  18.2,   37.1,  -18.1,  41.3, 296.0,   5.1,  -64.294, -32.232, 999.0, 999.0, 10323.7,  1.0,  1.0,  1.0,  1.0,  1.0, 99.0
1952.5,  260.0, -45.4, -66.0,   8.1,   38.6,  -18.8,  42.9, 296.0,   3.3,  -64.282, -32.237, 999.0, 999.0, 10449.9,  1.0,  1.0,  1.0,  1.0,  1.0, 99.0
1980.5,  255.0, -45.7, -65.8,   8.6,   40.1,  -18.7,  44.2, 295.0,   5.4,  -64.271, -32.242, 999.0, 999.0, 10578.4,  1.0,  1.0,  1.0,  1.0,  1.0, 99.0
2009.0,  250.0, -46.7, -65.8,   9.6,   41.1,  -17.4,  44.6, 292.9,   4.5,  -64.258, -32.247, 999.0, 999.0, 10711.4,  1.0,  1.0,  1.0,  1.0,  1.0, 99.0
2037.5,  245.0, -47.3, -66.7,   9.0,   41.3,  -15.8,  44.2, 290.9,   5.3,  -64.245, -32.251, 999.0, 999.0, 10844.4,  1.0,  1.0,  1.0,  1.0,  1.0, 99.0
2069.0,  240.0, -47.0, -68.9,   6.4,   39.8,  -17.7,  43.6, 294.0,   4.1,  -64.232, -32.255, 999.0, 999.0, 10982.3,  1.0,  1.0,  1.0,  1.0,  1.0, 99.0
