Time,Press,Temp,Dewpt,RH,Ucmp,Vcmp,spd,dir,Wcm, Lon,Lat,Ele,Azi,Alt, Qp,Qt,Qr, Qu,Qv,Qd
   0.0,  887.7,  22.6,   7.9,  38.8,   -3.9,   -6.0,   7.1,  33.0,   0.0,  -64.730, -32.130, 999.0, 999.0,  1139.4,  3.0,  3.0,  3.0,  1.0,  1.0, 99.0
   3.9,  885.0,  19.4,   5.3,  39.6,   -2.2,   -5.8,   6.2,  20.5,   6.8,  -64.730, -32.130, 999.0, 999.0,  1164.7,  2.0,  1.0,  1.0,  1.0,  1.0, 99.0
  14.7,  880.0,  19.1,   5.2,  40.1,   -3.3,   -7.8,   8.4,  23.0,   7.4,  -64.730, -32.131, 999.0, 999.0,  1212.0,  1.0,  1.0,  1.0,  1.0,  1.0, 99.0
  22.1,  875.0,  18.6,   5.3,  41.4,   -3.6,   -7.4,   8.3,  26.0,   6.7,  -64.731, -32.131, 999.0, 999.0,  1262.4,  1.0,  1.0,  1.0,  1.0,  1.0, 99.0
  29.0,  870.0,  18.1,   5.0,  41.9,   -3.9,   -6.8,   7.8,  29.8,   6.4,  -64.731, -32.132, 999.0, 999.0,  1312.9,  2.0,  1.0,  1.0,  1.0,  1.0, 99.0
  36.0,  865.0,  17.4,   4.7,  42.9,   -4.3,   -6.4,   7.7,  33.9,   5.8,  -64.731, -32.132, 999.0, 999.0,  1362.6,  1.0,  1.0,  1.0,  1.0,  1.0, 99.0
  43.9,  860.0,  17.0,   4.5,  43.6,   -4.8,   -6.4,   8.0,  36.9,   6.5,  -64.732, -32.133, 999.0, 999.0,  1408.8,  1.0,  1.0,  1.0,  1.0,  1.0, 99.0
  50.1,  855.0,  16.4,   4.4,  44.7,   -5.1,   -6.7,   8.4,  37.3,   9.0,  -64.732, -32.133, 999.0, 999.0,  1460.4,  1.0,  1.0,  1.0,  1.0,  1.0, 99.0
  57.0,  850.0,  15.7,   4.0,  45.5,   -4.9,   -7.2,   8.7,  34.2,   6.8,  -64.732, -32.133, 999.0, 999.0,  1509.1,  1.0,  1.0,  1.0,  1.0,  1.0, 99.0
  63.4,  845.0,  15.2,   3.5,  45.5,   -4.2,   -7.6,   8.7,  28.6,  10.0,  -64.733, -32.134, 999.0, 999.0,  1560.7,  1.0,  1.0,  1.0,  1.0,  1.0, 99.0
  70.0,  840.0,  14.6,   3.4,  46.8,   -3.2,   -8.0,   8.6,  21.8,   8.5,  -64.733, -32.134, 999.0, 999.0,  1612.0,  2.0,  1.0,  1.0,  1.0,  1.0, 99.0
  76.5,  835.0,  14.1,   3.3,  48.0,   -2.3,   -8.0,   8.3,  16.5,   8.0,  -64.733, -32.135, 999.0, 999.0,  1661.9,  1.0,  1.0,  1.0,  1.0,  1.0, 99.0
  83.3,  830.0,  13.7,   3.4,  49.9,   -1.7,   -7.8,   8.0,  12.3,   7.2,  -64.733, -32.135, 999.0, 999.0,  1710.6,  1.0,  1.0,  1.0,  1.0,  1.0, 99.0
  90.5,  825.0,  13.3,   3.0,  49.7,   -1.6,   -7.7,   7.8,  11.5,   6.6,  -64.733, -32.136, 999.0, 999.0,  1763.2,  1.0,  1.0,  1.0,  1.0,  1.0, 99.0
  99.0,  820.0,  13.0,  -1.5,  36.7,   -2.0,   -7.6,   7.9,  14.7,   5.4,  -64.734, -32.136, 999.0, 999.0,  1813.0,  1.0,  1.0,  1.0,  1.0,  1.0, 99.0
 108.2,  815.0,  12.4,   0.3,  43.5,   -2.6,   -7.9,   8.3,  18.2,   5.3,  -64.734, -32.137, 999.0, 999.0,  1863.8,  1.0,  1.0,  1.0,  1.0,  1.0, 99.0
 118.0,  810.0,  11.8,  -0.8,  41.7,   -2.5,   -8.2,   8.6,  17.0,   5.5,  -64.734, -32.138, 999.0, 999.0,  1916.1,  1.0,  1.0,  1.0,  1.0,  1.0, 99.0
 126.5,  805.0,  11.5,  -0.6,  43.3,   -2.2,   -8.7,   9.0,  14.2,   7.6,  -64.734, -32.138, 999.0, 999.0,  1970.1,  1.0,  1.0,  1.0,  1.0,  1.0, 99.0
 135.6,  800.0,  11.4,  -7.1,  26.8,   -1.7,   -9.5,   9.6,  10.0,   6.6,  -64.734, -32.139, 999.0, 999.0,  2019.9,  1.0,  1.0,  1.0,  1.0,  1.0, 99.0
 145.2,  795.0,  11.6, -23.4,   6.8,   -1.1,  -10.1,  10.2,   6.0,   6.5,  -64.735, -32.140, 999.0, 999.0,  2071.2,  1.0,  1.0,  1.0,  1.0,  1.0, 99.0
 154.6,  790.0,  11.3, -25.3,   5.9,   -0.5,  -10.5,  10.5,   2.7,   4.5,  -64.735, -32.141, 999.0, 999.0,  2123.7,  1.0,  1.0,  1.0,  1.0,  1.0, 99.0
 164.4,  785.0,  10.9, -25.6,   5.9,   -0.2,  -10.3,  10.3,   1.1,   4.5,  -64.735, -32.142, 999.0, 999.0,  2177.3,  1.0,  1.0,  1.0,  1.0,  1.0, 99.0
 174.6,  780.0,  10.5, -25.5,   6.1,    0.5,   -9.9,  10.0, 357.1,   6.0,  -64.735, -32.143, 999.0, 999.0,  2231.9,  1.0,  1.0,  1.0,  1.0,  1.0, 99.0
 185.7,  775.0,  10.3, -23.9,   7.1,    0.8,   -9.4,   9.5, 355.2,   7.0,  -64.735, -32.144, 999.0, 999.0,  2282.1,  1.0,  1.0,  1.0,  1.0,  1.0, 99.0
 195.5,  770.0,  10.0, -23.6,   7.5,    0.2,   -8.9,   8.9, 358.7,   4.4,  -64.735, -32.145, 999.0, 999.0,  2336.8,  1.0,  1.0,  1.0,  1.0,  1.0, 99.0
 206.2,  765.0,   9.7, -20.5,  10.0,   -0.3,   -8.1,   8.1,   2.1,   3.4,  -64.735, -32.145, 999.0, 999.0,  2392.1,  1.0,  1.0,  1.0,  1.0,  1.0, 99.0
 216.8,  760.0,   9.6,  -3.7,  39.0,   -0.1,   -7.3,   7.3,   0.8,   4.7,  -64.735, -32.146, 999.0, 999.0,  2446.4,  1.0,  1.0,  1.0,  1.0,  1.0, 99.0
 227.2,  755.0,   9.2,  -1.1,  48.4,   -0.6,   -6.6,   6.6,   5.2,   5.9,  -64.735, -32.147, 999.0, 999.0,  2500.0,  1.0,  1.0,  1.0,  1.0,  1.0, 99.0
 238.4,  750.0,   8.9,   2.9,  66.2,   -1.5,   -5.9,   6.1,  14.6,   3.1,  -64.735, -32.147, 999.0, 999.0,  2557.0,  1.0,  1.0,  1.0,  1.0,  1.0, 99.0
 249.0,  745.0,   8.4,   3.3,  70.3,   -2.5,   -5.6,   6.1,  24.1,   5.3,  -64.735, -32.148, 999.0, 999.0,  2612.5,  1.0,  1.0,  1.0,  1.0,  1.0, 99.0
 258.5,  740.0,   7.9,   3.4,  73.4,   -3.1,   -5.6,   6.4,  29.0,   7.4,  -64.735, -32.148, 999.0, 999.0,  2665.7,  1.0,  1.0,  1.0,  1.0,  1.0, 99.0
 267.4,  735.0,   7.4,   3.5,  76.4,   -3.2,   -5.8,   6.6,  28.6,   5.1,  -64.735, -32.149, 999.0, 999.0,  2724.2,  1.0,  1.0,  1.0,  1.0,  1.0, 99.0
 277.7,  730.0,   6.9,   3.5,  78.8,   -2.7,   -6.1,   6.7,  23.9,   8.2,  -64.736, -32.149, 999.0, 999.0,  2779.5,  1.0,  1.0,  1.0,  1.0,  1.0, 99.0
 288.5,  725.0,   6.6,   4.5,  86.6,   -2.7,   -6.6,   7.1,  22.0,   5.4,  -64.736, -32.150, 999.0, 999.0,  2833.6,  1.0,  1.0,  1.0,  1.0,  1.0, 99.0
 299.0,  720.0,   6.0,   4.5,  90.3,   -2.4,   -7.0,   7.4,  18.9,   5.0,  -64.736, -32.151, 999.0, 999.0,  2891.1,  1.0,  1.0,  1.0,  1.0,  1.0, 99.0
 309.0,  715.0,   5.5,   4.3,  91.7,   -1.6,   -7.3,   7.5,  12.4,   6.7,  -64.737, -32.151, 999.0, 999.0,  2950.6,  1.0,  1.0,  1.0,  1.0,  1.0, 99.0
 319.5,  710.0,   5.1,   3.7,  90.6,   -0.5,   -7.6,   7.6,   3.4,   4.8,  -64.737, -32.152, 999.0, 999.0,  3007.6,  1.0,  1.0,  1.0,  1.0,  1.0, 99.0
 330.4,  705.0,   4.8,   3.0,  88.3,   -0.3,   -8.0,   8.0,   2.1,   6.1,  -64.737, -32.153, 999.0, 999.0,  3066.2,  1.0,  1.0,  1.0,  1.0,  1.0, 99.0
 342.2,  700.0,   4.3,   2.8,  90.0,   -0.6,   -8.3,   8.3,   4.1,   6.7,  -64.737, -32.154, 999.0, 999.0,  3122.8,  1.0,  1.0,  1.0,  1.0,  1.0, 99.0
 352.2,  695.0,   3.9,   2.7,  92.1,   -0.4,   -7.6,   7.6,   2.9,   5.0,  -64.737, -32.154, 999.0, 999.0,  3181.9,  1.0,  1.0,  1.0,  1.0,  1.0, 99.0
 361.7,  690.0,   3.7,   2.5,  91.9,    0.7,   -6.6,   6.7, 354.3,   7.1,  -64.737, -32.155, 999.0, 999.0,  3240.9,  1.0,  1.0,  1.0,  1.0,  1.0, 99.0
 371.7,  685.0,   3.4,   2.5,  93.6,    2.1,   -6.1,   6.5, 340.7,   3.6,  -64.737, -32.156, 999.0, 999.0,  3298.3,  1.0,  1.0,  1.0,  1.0,  1.0, 99.0
 384.0,  680.0,   3.1,   2.4,  95.2,    3.5,   -6.4,   7.3, 331.3,   3.9,  -64.736, -32.156, 999.0, 999.0,  3358.0,  1.0,  1.0,  1.0,  1.0,  1.0, 99.0
 397.3,  675.0,   3.3,   2.5,  94.5,    4.1,   -5.8,   7.1, 324.6,   4.9,  -64.736, -32.157, 999.0, 999.0,  3419.7,  1.0,  1.0,  1.0,  1.0,  1.0, 99.0
 408.6,  670.0,   3.2,   2.2,  92.8,    4.7,   -4.8,   6.7, 316.1,   4.3,  -64.735, -32.157, 999.0, 999.0,  3479.5,  1.0,  1.0,  1.0,  1.0,  1.0, 99.0
 419.8,  665.0,   2.8,   1.5,  90.9,    5.6,   -5.0,   7.5, 311.9,   4.1,  -64.735, -32.158, 999.0, 999.0,  3539.4,  1.0,  1.0,  1.0,  1.0,  1.0, 99.0
 430.5,  660.0,   2.5,   1.2,  91.0,    5.5,   -5.5,   7.8, 315.0,   8.3,  -64.734, -32.158, 999.0, 999.0,  3600.2,  1.0,  1.0,  1.0,  1.0,  1.0, 99.0
 441.3,  655.0,   2.0,   0.7,  90.9,    4.7,   -5.0,   6.8, 316.9,   6.5,  -64.733, -32.159, 999.0, 999.0,  3662.9,  1.0,  1.0,  1.0,  1.0,  1.0, 99.0
 452.0,  650.0,   1.6,   0.1,  89.8,    4.5,   -4.3,   6.2, 313.7,   4.9,  -64.733, -32.159, 999.0, 999.0,  3724.9,  1.0,  1.0,  1.0,  1.0,  1.0, 99.0
 463.7,  645.0,   1.0,  -0.2,  91.8,    4.7,   -4.4,   6.4, 313.1,   4.9,  -64.732, -32.160, 999.0, 999.0,  3786.0,  1.0,  1.0,  1.0,  1.0,  1.0, 99.0
 474.6,  640.0,   0.5,  -0.4,  93.2,    4.5,   -3.8,   5.9, 310.2,   5.2,  -64.732, -32.160, 999.0, 999.0,  3848.4,  1.0,  1.0,  1.0,  1.0,  1.0, 99.0
 484.6,  635.0,   0.2,  -1.5,  88.7,    4.6,   -2.2,   5.1, 296.2,   5.6,  -64.731, -32.161, 999.0, 999.0,  3912.9,  1.0,  1.0,  1.0,  1.0,  1.0, 99.0
 494.2,  630.0,   0.5,  -3.8,  73.0,    5.3,   -0.6,   5.4, 276.4,   6.9,  -64.731, -32.161, 999.0, 999.0,  3975.3,  1.0,  1.0,  1.0,  1.0,  1.0, 99.0
 504.8,  625.0,   0.6,  -5.6,  63.0,    7.3,    0.1,   7.3, 269.2,   8.5,  -64.730, -32.161, 999.0, 999.0,  4038.3,  1.0,  1.0,  1.0,  1.0,  1.0, 99.0
 514.0,  620.0,   0.5,  -8.0,  52.9,    9.2,   -0.2,   9.2, 271.2,   6.0,  -64.729, -32.161, 999.0, 999.0,  4106.1,  1.0,  1.0,  1.0,  1.0,  1.0, 99.0
 525.2,  615.0,   0.4,  -9.7,  46.6,   10.2,   -0.5,  10.2, 272.8,   4.5,  -64.728, -32.161, 999.0, 999.0,  4169.6,  1.0,  1.0,  1.0,  1.0,  1.0, 99.0
 536.0,  610.0,   0.1,  -9.6,  48.0,   10.4,   -0.2,  10.4, 271.1,   6.3,  -64.727, -32.161, 999.0, 999.0,  4234.6,  1.0,  1.0,  1.0,  1.0,  1.0, 99.0
 548.0,  605.0,  -0.5, -10.6,  46.4,   11.4,   -0.2,  11.4, 271.0,   5.7,  -64.726, -32.161, 999.0, 999.0,  4300.2,  1.0,  1.0,  1.0,  1.0,  1.0, 99.0
 559.8,  600.0,  -1.0, -11.6,  44.6,   11.8,   -0.6,  11.8, 272.9,   6.4,  -64.724, -32.161, 999.0, 999.0,  4366.8,  1.0,  1.0,  1.0,  1.0,  1.0, 99.0
 571.5,  595.0,  -1.4, -11.4,  46.6,   11.5,   -1.0,  11.5, 275.0,   7.2,  -64.723, -32.161, 999.0, 999.0,  4434.1,  1.0,  1.0,  1.0,  1.0,  1.0, 99.0
 583.5,  590.0,  -1.9, -10.5,  51.9,   11.0,   -1.2,  11.1, 276.2,   4.1,  -64.721, -32.161, 999.0, 999.0,  4500.5,  1.0,  1.0,  1.0,  1.0,  1.0, 99.0
 595.5,  585.0,  -2.3, -11.7,  48.5,   10.9,   -1.7,  11.0, 278.9,   5.3,  -64.720, -32.161, 999.0, 999.0,  4566.7,  1.0,  1.0,  1.0,  1.0,  1.0, 99.0
 605.8,  580.0,  -3.0, -12.2,  49.0,   10.5,   -1.9,  10.7, 280.3,   6.9,  -64.719, -32.161, 999.0, 999.0,  4637.2,  1.0,  1.0,  1.0,  1.0,  1.0, 99.0
 617.7,  575.0,  -3.6, -12.5,  49.8,   11.1,   -1.8,  11.3, 279.3,   6.2,  -64.717, -32.161, 999.0, 999.0,  4705.1,  1.0,  1.0,  1.0,  1.0,  1.0, 99.0
 630.0,  570.0,  -4.2, -13.1,  49.8,   12.9,   -2.0,  13.1, 278.8,   5.1,  -64.716, -32.162, 999.0, 999.0,  4773.7,  1.0,  1.0,  1.0,  1.0,  1.0, 99.0
 643.3,  565.0,  -4.7, -14.6,  46.1,   14.3,   -1.3,  14.4, 275.2,   7.9,  -64.714, -32.162, 999.0, 999.0,  4843.1,  1.0,  1.0,  1.0,  1.0,  1.0, 99.0
 654.2,  560.0,  -5.3, -15.2,  45.8,   14.7,    0.0,  14.7, 270.0,   7.6,  -64.712, -32.162, 999.0, 999.0,  4913.4,  1.0,  1.0,  1.0,  1.0,  1.0, 99.0
 665.5,  555.0,  -5.8, -16.7,  41.9,   14.4,   -0.3,  14.4, 271.0,   6.4,  -64.711, -32.162, 999.0, 999.0,  4984.0,  1.0,  1.0,  1.0,  1.0,  1.0, 99.0
 679.5,  550.0,  -6.3, -18.7,  36.5,   13.1,   -1.2,  13.2, 275.2,   3.7,  -64.709, -32.162, 999.0, 999.0,  5054.5,  1.0,  1.0,  1.0,  1.0,  1.0, 99.0
 694.7,  545.0,  -6.7, -21.4,  30.1,   13.0,   -0.9,  13.0, 274.0,   5.9,  -64.706, -32.162, 999.0, 999.0,  5126.2,  1.0,  1.0,  1.0,  1.0,  1.0, 99.0
 708.3,  540.0,  -7.3, -18.7,  39.6,   13.6,   -0.9,  13.7, 273.9,   3.5,  -64.705, -32.162, 999.0, 999.0,  5198.5,  1.0,  1.0,  1.0,  1.0,  1.0, 99.0
 721.7,  535.0,  -7.8, -18.9,  40.7,   13.2,   -2.0,  13.4, 278.8,   7.9,  -64.703, -32.163, 999.0, 999.0,  5270.9,  1.0,  1.0,  1.0,  1.0,  1.0, 99.0
 733.7,  530.0,  -8.1, -23.8,  27.1,   13.4,   -2.6,  13.6, 281.0,   4.7,  -64.701, -32.163, 999.0, 999.0,  5344.7,  1.0,  1.0,  1.0,  1.0,  1.0, 99.0
 748.0,  525.0,  -8.7, -26.6,  22.0,   14.4,   -1.8,  14.5, 277.1,   6.4,  -64.699, -32.163, 999.0, 999.0,  5418.1,  1.0,  1.0,  1.0,  1.0,  1.0, 99.0
 764.0,  520.0,  -9.2, -29.1,  18.2,   14.9,   -0.8,  14.9, 273.1,   6.5,  -64.696, -32.163, 999.0, 999.0,  5491.5,  1.0,  1.0,  1.0,  1.0,  1.0, 99.0
 778.0,  515.0,  -9.5, -22.9,  32.6,   15.0,   -1.0,  15.0, 273.8,   5.6,  -64.694, -32.163, 999.0, 999.0,  5565.0,  1.0,  1.0,  1.0,  1.0,  1.0, 99.0
 790.5,  510.0,  -9.9, -21.0,  39.8,   15.1,   -1.1,  15.1, 274.2,   6.4,  -64.692, -32.163, 999.0, 999.0,  5642.4,  1.0,  1.0,  1.0,  1.0,  1.0, 99.0
 803.3,  505.0, -10.5, -21.2,  41.1,   15.5,    0.0,  15.5, 270.0,   5.1,  -64.690, -32.164, 999.0, 999.0,  5717.1,  1.0,  1.0,  1.0,  1.0,  1.0, 99.0
 816.5,  500.0, -11.1, -22.2,  39.6,   15.7,    1.1,  15.7, 266.0,   5.7,  -64.688, -32.163, 999.0, 999.0,  5794.4,  1.0,  1.0,  1.0,  1.0,  1.0, 99.0
 832.3,  495.0, -11.6, -22.9,  38.6,   15.4,    1.0,  15.4, 266.3,   4.5,  -64.685, -32.163, 999.0, 999.0,  5869.8,  1.0,  1.0,  1.0,  1.0,  1.0, 99.0
 844.6,  490.0, -12.4, -23.0,  40.9,   15.0,    0.8,  15.1, 267.0,   6.3,  -64.683, -32.163, 999.0, 999.0,  5947.6,  1.0,  1.0,  1.0,  1.0,  1.0, 99.0
 858.3,  485.0, -13.1, -22.6,  44.8,   14.7,    1.6,  14.8, 263.8,   6.2,  -64.681, -32.163, 999.0, 999.0,  6024.9,  1.0,  1.0,  1.0,  1.0,  1.0, 99.0
 874.8,  480.0, -13.8, -22.6,  47.3,   15.3,    2.2,  15.5, 261.9,   6.5,  -64.678, -32.163, 999.0, 999.0,  6104.8,  1.0,  1.0,  1.0,  1.0,  1.0, 99.0
 890.3,  475.0, -14.5, -22.7,  49.8,   15.7,    1.9,  15.8, 263.1,   4.9,  -64.676, -32.162, 999.0, 999.0,  6184.6,  1.0,  1.0,  1.0,  1.0,  1.0, 99.0
 905.0,  470.0, -15.3, -22.9,  52.1,   15.5,    1.9,  15.6, 263.0,   6.0,  -64.673, -32.162, 999.0, 999.0,  6264.0,  1.0,  1.0,  1.0,  1.0,  1.0, 99.0
 918.8,  465.0, -16.0, -23.2,  53.8,   15.3,    1.6,  15.4, 264.0,   5.8,  -64.671, -32.162, 999.0, 999.0,  6347.0,  1.0,  1.0,  1.0,  1.0,  1.0, 99.0
 934.0,  460.0, -16.7, -23.3,  56.4,   15.6,    0.5,  15.6, 268.2,   5.2,  -64.669, -32.162, 999.0, 999.0,  6426.3,  1.0,  1.0,  1.0,  1.0,  1.0, 99.0
 948.7,  455.0, -17.5, -23.9,  57.4,   15.7,   -0.5,  15.7, 271.8,   5.5,  -64.666, -32.162, 999.0, 999.0,  6508.0,  1.0,  1.0,  1.0,  1.0,  1.0, 99.0
 962.3,  450.0, -18.2, -24.3,  58.6,   16.2,   -0.8,  16.2, 272.9,   5.2,  -64.664, -32.162, 999.0, 999.0,  6591.8,  1.0,  1.0,  1.0,  1.0,  1.0, 99.0
 977.0,  445.0, -18.8, -24.2,  62.3,   17.7,    0.0,  17.7, 270.0,   3.9,  -64.661, -32.162, 999.0, 999.0,  6674.5,  1.0,  1.0,  1.0,  1.0,  1.0, 99.0
 992.3,  440.0, -19.3, -25.2,  59.7,   19.7,    0.0,  19.7, 270.0,   4.4,  -64.658, -32.162, 999.0, 999.0,  6758.4,  1.0,  1.0,  1.0,  1.0,  1.0, 99.0
1007.3,  435.0, -19.8, -24.8,  64.5,   21.1,   -0.3,  21.1, 270.7,   5.6,  -64.655, -32.162, 999.0, 999.0,  6843.5,  1.0,  1.0,  1.0,  1.0,  1.0, 99.0
1023.3,  430.0, -20.5, -25.8,  62.7,   21.7,    1.1,  21.8, 267.1,   4.9,  -64.651, -32.162, 999.0, 999.0,  6928.7,  1.0,  1.0,  1.0,  1.0,  1.0, 99.0
1041.3,  425.0, -21.2, -26.4,  62.9,   21.8,    1.9,  21.9, 265.0,   5.8,  -64.647, -32.162, 999.0, 999.0,  7014.0,  1.0,  1.0,  1.0,  1.0,  1.0, 99.0
1056.5,  420.0, -21.6, -29.8,  47.5,   22.0,    1.9,  22.1, 265.1,   5.4,  -64.644, -32.161, 999.0, 999.0,  7103.5,  1.0,  1.0,  1.0,  1.0,  1.0, 99.0
1071.3,  415.0, -22.1, -30.9,  44.8,   22.9,    2.0,  23.0, 265.0,   5.1,  -64.640, -32.161, 999.0, 999.0,  7191.1,  1.0,  1.0,  1.0,  1.0,  1.0, 99.0
1087.5,  410.0, -22.9, -31.3,  45.8,   24.5,    2.1,  24.5, 265.1,   4.2,  -64.636, -32.161, 999.0, 999.0,  7280.3,  1.0,  1.0,  1.0,  1.0,  1.0, 99.0
1104.3,  405.0, -23.6, -32.1,  45.6,   25.1,    1.8,  25.2, 265.9,   6.4,  -64.632, -32.160, 999.0, 999.0,  7369.3,  1.0,  1.0,  1.0,  1.0,  1.0, 99.0
1120.3,  400.0, -24.3, -33.0,  44.6,   25.4,    0.7,  25.4, 268.3,   7.0,  -64.627, -32.160, 999.0, 999.0,  7460.8,  1.0,  1.0,  1.0,  1.0,  1.0, 99.0
1136.5,  395.0, -24.9, -35.3,  37.6,   25.8,    0.0,  25.8, 270.0,   6.1,  -64.623, -32.160, 999.0, 999.0,  7553.1,  1.0,  1.0,  1.0,  1.0,  1.0, 99.0
1157.0,  390.0, -25.4, -36.6,  34.4,   26.8,    0.0,  26.8, 270.0,   5.0,  -64.617, -32.160, 999.0, 999.0,  7642.8,  1.0,  1.0,  1.0,  1.0,  1.0, 99.0
1173.0,  385.0, -25.9, -39.6,  26.5,   27.3,    0.5,  27.3, 269.0,   5.5,  -64.612, -32.160, 999.0, 999.0,  7737.1,  1.0,  1.0,  1.0,  1.0,  1.0, 99.0
1191.5,  380.0, -26.5, -40.2,  26.2,   27.3,    1.2,  27.3, 267.5,   2.8,  -64.607, -32.160, 999.0, 999.0,  7831.8,  1.0,  1.0,  1.0,  1.0,  1.0, 99.0
1211.0,  375.0, -27.2, -41.6,  24.2,   27.2,    2.4,  27.3, 265.0,   6.5,  -64.601, -32.160, 999.0, 999.0,  7928.4,  1.0,  1.0,  1.0,  1.0,  1.0, 99.0
1226.7,  370.0, -27.7, -44.7,  18.2,   27.6,    3.4,  27.8, 263.0,   7.1,  -64.597, -32.159, 999.0, 999.0,  8025.5,  1.0,  1.0,  1.0,  1.0,  1.0, 99.0
1243.3,  365.0, -28.2, -46.9,  15.0,   28.2,    4.5,  28.6, 260.9,   5.8,  -64.592, -32.159, 999.0, 999.0,  8122.8,  1.0,  1.0,  1.0,  1.0,  1.0, 99.0
1259.7,  360.0, -29.1, -47.2,  15.7,   29.2,    5.1,  29.6, 260.1,   5.1,  -64.587, -32.158, 999.0, 999.0,  8221.4,  1.0,  1.0,  1.0,  1.0,  1.0, 99.0
1275.7,  355.0, -29.8, -48.2,  15.0,   30.4,    6.3,  31.0, 258.3,   5.5,  -64.582, -32.157, 999.0, 999.0,  8320.3,  1.0,  1.0,  1.0,  1.0,  1.0, 99.0
1292.7,  350.0, -30.6, -47.5,  17.4,   31.0,    7.2,  31.8, 256.9,   6.3,  -64.576, -32.156, 999.0, 999.0,  8421.1,  1.0,  1.0,  1.0,  1.0,  1.0, 99.0
1309.7,  345.0, -31.5, -48.1,  17.7,   31.2,    7.2,  32.0, 257.0,   6.7,  -64.571, -32.155, 999.0, 999.0,  8525.0,  1.0,  1.0,  1.0,  1.0,  1.0, 99.0
1330.0,  340.0, -32.1, -50.1,  15.0,   32.2,    6.3,  32.8, 258.9,   5.1,  -64.564, -32.154, 999.0, 999.0,  8625.8,  1.0,  1.0,  1.0,  1.0,  1.0, 99.0
1347.0,  335.0, -33.0, -50.3,  16.0,   32.3,    6.3,  32.9, 259.0,   4.3,  -64.558, -32.153, 999.0, 999.0,  8731.7,  1.0,  1.0,  1.0,  1.0,  1.0, 99.0
1368.0,  330.0, -33.7, -46.2,  27.3,   33.5,    6.5,  34.1, 259.0,   4.7,  -64.551, -32.152, 999.0, 999.0,  8836.3,  1.0,  1.0,  1.0,  1.0,  1.0, 99.0
1388.3,  325.0, -34.5, -47.5,  25.5,   34.8,    5.5,  35.3, 261.0,   4.9,  -64.543, -32.151, 999.0, 999.0,  8944.5,  1.0,  1.0,  1.0,  1.0,  1.0, 99.0
1411.5,  320.0, -35.3, -49.5,  22.1,   35.3,    5.6,  35.8, 261.0,   4.1,  -64.535, -32.150, 999.0, 999.0,  9051.2,  1.0,  1.0,  1.0,  1.0,  1.0, 99.0
1434.5,  315.0, -36.3, -50.9,  20.5,   35.5,    6.9,  36.2, 259.0,   6.9,  -64.526, -32.148, 999.0, 999.0,  9161.6,  1.0,  1.0,  1.0,  1.0,  1.0, 99.0
1454.0,  310.0, -37.2, -54.2,  15.3,   35.7,    7.6,  36.5, 258.0,   6.4,  -64.519, -32.147, 999.0, 999.0,  9270.7,  1.0,  1.0,  1.0,  1.0,  1.0, 99.0
1473.0,  305.0, -38.2, -54.6,  16.2,   35.9,    7.0,  36.6, 259.0,   3.7,  -64.511, -32.146, 999.0, 999.0,  9381.1,  1.0,  1.0,  1.0,  1.0,  1.0, 99.0
1493.0,  300.0, -39.4, -56.8,  14.1,   35.6,    6.9,  36.3, 259.0,   5.4,  -64.504, -32.145, 999.0, 999.0,  9498.3,  1.0,  1.0,  1.0,  1.0,  1.0, 99.0
1518.0,  295.0, -40.5, -57.5,  14.4,   35.0,    6.8,  35.7, 259.0,   4.4,  -64.494, -32.143, 999.0, 999.0,  9612.4,  1.0,  1.0,  1.0,  1.0,  1.0, 99.0
1543.0,  290.0, -41.0, -59.2,  12.2,   36.2,    6.4,  36.8, 260.0,   3.5,  -64.485, -32.142, 999.0, 999.0,  9727.4,  1.0,  1.0,  1.0,  1.0,  1.0, 99.0
1567.0,  285.0, -42.1, -59.5,  13.3,   36.5,    7.1,  37.2, 259.0,   5.2,  -64.476, -32.140, 999.0, 999.0,  9847.3,  1.0,  1.0,  1.0,  1.0,  1.0, 99.0
1589.0,  280.0, -43.2, -59.4,  15.1,   36.9,    6.5,  37.5, 260.0,   6.9,  -64.467, -32.139, 999.0, 999.0,  9965.1,  1.0,  1.0,  1.0,  1.0,  1.0, 99.0
1609.0,  275.0, -44.4, -57.3,  22.5,   36.9,    5.9,  37.4, 260.9,   6.8,  -64.459, -32.138, 999.0, 999.0, 10087.6,  1.0,  1.0,  1.0,  1.0,  1.0, 99.0
1629.0,  270.0, -45.5, -58.4,  21.9,   37.1,    4.6,  37.4, 262.9,   5.8,  -64.451, -32.137, 999.0, 999.0, 10207.8,  1.0,  1.0,  1.0,  1.0,  1.0, 99.0
1650.0,  265.0, -46.3, -60.2,  19.2,   37.7,    2.6,  37.8, 266.1,   5.5,  -64.443, -32.136, 999.0, 999.0, 10333.0,  1.0,  1.0,  1.0,  1.0,  1.0, 99.0
1675.5,  260.0, -47.3, -63.7,  13.6,   37.8,    2.6,  37.9, 266.1,   5.7,  -64.433, -32.136, 999.0, 999.0, 10459.7,  1.0,  1.0,  1.0,  1.0,  1.0, 99.0
1698.5,  255.0, -48.3, -63.0,  16.5,   39.3,    2.7,  39.3, 266.1,   6.1,  -64.424, -32.135, 999.0, 999.0, 10587.3,  1.0,  1.0,  1.0,  1.0,  1.0, 99.0
1724.0,  250.0, -49.3, -60.4,  26.1,   40.5,    4.3,  40.7, 263.9,   4.4,  -64.412, -32.134, 999.0, 999.0, 10719.0,  1.0,  1.0,  1.0,  1.0,  1.0, 99.0
1749.5,  245.0, -50.3, -61.0,  27.0,   39.8,    4.9,  40.1, 263.0,   6.8,  -64.402, -32.133, 999.0, 999.0, 10849.0,  1.0,  1.0,  1.0,  1.0,  1.0, 99.0
1773.0,  240.0, -51.3, -66.4,  14.9,   38.9,    4.8,  39.2, 263.0,   7.2,  -64.392, -32.132, 999.0, 999.0, 10984.1,  1.0,  1.0,  1.0,  1.0,  1.0, 99.0
