Time,Press,Temp,Dewpt,RH,Ucmp,Vcmp,spd,dir,Wcm, Lon,Lat,Ele,Azi,Alt, Qp,Qt,Qr, Qu,Qv,Qd
   0.0,  976.7,  20.6,   8.3,  45.1,   -1.0,    0.0,   1.0,  90.0, 999.0,  -63.726, -29.906, 999.0, 999.0,   341.0,  1.0,  1.0,  1.0,  1.0,  1.0,  9.0
   2.8,  975.0,  20.3,   7.4,  43.3,   -2.3,    0.9,   2.5, 111.4,   5.5,  -63.726, -29.906, 999.0, 999.0,   356.2,  1.0,  1.0,  1.0,  1.0,  1.0, 99.0
  10.5,  970.0,  20.4,   7.1,  42.2,   -3.1,    1.1,   3.3, 110.1,   6.0,  -63.726, -29.906, 999.0, 999.0,   399.8,  1.0,  1.0,  1.0,  1.0,  1.0, 99.0
  19.1,  965.0,  20.4,   6.7,  41.2,   -4.1,    1.5,   4.3, 110.4,   4.5,  -63.725, -29.906, 999.0, 999.0,   444.9,  1.0,  1.0,  1.0,  1.0,  1.0, 99.0
  28.3,  960.0,  20.2,   5.9,  39.2,   -4.9,    1.9,   5.3, 111.3,   6.0,  -63.727, -29.906, 999.0, 999.0,   489.8,  1.0,  1.0,  1.0,  1.0,  1.0, 99.0
  37.7,  955.0,  19.9,   5.6,  39.0,   -5.0,    2.5,   5.6, 116.6,   5.0,  -63.726, -29.905, 999.0, 999.0,   534.3,  1.0,  1.0,  1.0,  1.0,  1.0, 99.0
  47.0,  950.0,  19.5,   5.2,  39.1,   -5.1,    3.0,   5.9, 120.0,   5.3,  -63.728, -29.905, 999.0, 999.0,   580.0,  1.0,  1.0,  1.0,  1.0,  1.0, 99.0
  56.5,  945.0,  19.2,   4.5,  38.0,   -5.8,    3.2,   6.7, 119.0,   5.0,  -63.728, -29.905, 999.0, 999.0,   625.7,  1.0,  1.0,  1.0,  1.0,  1.0, 99.0
  65.5,  940.0,  18.8,   3.9,  37.1,   -6.4,    3.5,   7.3, 118.5,   5.5,  -63.729, -29.905, 999.0, 999.0,   671.0,  1.0,  1.0,  1.0,  1.0,  1.0, 99.0
  74.2,  935.0,  18.5,   2.5,  34.4,   -7.5,    3.3,   8.2, 113.8,   6.0,  -63.730, -29.904, 999.0, 999.0,   715.9,  1.0,  1.0,  1.0,  1.0,  1.0, 99.0
  82.0,  930.0,  18.1,   2.1,  34.2,   -7.9,    4.2,   8.9, 118.0,   6.0,  -63.730, -29.904, 999.0, 999.0,   762.0,  1.0,  1.0,  1.0,  1.0,  1.0, 99.0
  91.0,  925.0,  17.8,   2.2,  35.2,   -7.7,    5.0,   9.2, 123.0,   4.0,  -63.731, -29.904, 999.0, 999.0,   809.0,  2.0,  1.0,  1.0,  1.0,  1.0, 99.0
 100.0,  920.0,  17.5,   3.1,  38.2,   -7.4,    6.0,   9.5, 129.0,   5.5,  -63.732, -29.903, 999.0, 999.0,   855.0,  1.0,  1.0,  1.0,  1.0,  1.0, 99.0
 109.0,  915.0,  17.2,   3.9,  41.3,   -6.4,    6.3,   8.9, 134.5,   6.0,  -63.732, -29.903, 999.0, 999.0,   901.0,  1.0,  1.0,  1.0,  1.0,  1.0, 99.0
 118.0,  910.0,  16.7,   4.2,  43.4,   -5.7,    6.1,   8.3, 136.9,   4.5,  -63.733, -29.902, 999.0, 999.0,   948.0,  1.0,  1.0,  1.0,  1.0,  1.0, 99.0
 126.8,  905.0,  16.3,   5.2,  47.8,   -5.3,    6.1,   8.0, 139.0,   4.5,  -63.734, -29.902, 999.0, 999.0,   994.6,  1.0,  1.0,  1.0,  1.0,  1.0, 99.0
 135.7,  900.0,  15.8,   5.5,  50.3,   -4.8,    6.1,   7.8, 141.7,   5.5,  -63.734, -29.901, 999.0, 999.0,  1042.2,  1.0,  1.0,  1.0,  1.0,  1.0, 99.0
 144.5,  895.0,  15.5,   5.4,  51.2,   -4.5,    6.6,   8.0, 145.7,   5.5,  -63.734, -29.901, 999.0, 999.0,  1089.0,  1.0,  1.0,  1.0,  1.0,  1.0, 99.0
 154.2,  890.0,  15.0,   5.6,  53.4,   -4.6,    7.0,   8.4, 146.7,   4.8,  -63.735, -29.900, 999.0, 999.0,  1137.0,  1.0,  1.0,  1.0,  1.0,  1.0, 99.0
 163.8,  885.0,  14.6,   6.0,  56.4,   -5.0,    7.6,   9.1, 146.8,   5.0,  -63.735, -29.900, 999.0, 999.0,  1184.1,  1.0,  1.0,  1.0,  1.0,  1.0, 99.0
 173.5,  880.0,  14.1,   6.2,  58.9,   -5.5,    7.9,   9.6, 145.4,   5.5,  -63.736, -29.899, 999.0, 999.0,  1232.3,  1.0,  1.0,  1.0,  1.0,  1.0, 99.0
 182.6,  875.0,  13.8,   6.2,  60.3,   -5.7,    8.1,   9.9, 145.0,   5.0,  -63.736, -29.898, 999.0, 999.0,  1280.0,  1.0,  1.0,  1.0,  1.0,  1.0, 99.0
 191.6,  870.0,  13.3,   6.6,  63.6,   -6.0,    8.6,  10.5, 145.3,   5.2,  -63.737, -29.897, 999.0, 999.0,  1328.4,  1.0,  1.0,  1.0,  1.0,  1.0, 99.0
 201.3,  865.0,  12.8,   7.0,  67.6,   -6.4,    9.1,  11.1, 144.9,   6.0,  -63.738, -29.897, 999.0, 999.0,  1377.0,  1.0,  1.0,  1.0,  1.0,  1.0, 99.0
 210.8,  860.0,  12.5,   7.4,  71.1,   -6.7,    9.6,  11.7, 145.4,   5.2,  -63.738, -29.896, 999.0, 999.0,  1426.0,  1.0,  1.0,  1.0,  1.0,  1.0, 99.0
 219.8,  855.0,  12.0,   7.4,  73.5,   -6.9,    9.9,  12.1, 145.1,   6.0,  -63.739, -29.895, 999.0, 999.0,  1475.0,  1.0,  1.0,  1.0,  1.0,  1.0, 99.0
 230.0,  850.0,  11.6,   7.5,  75.7,   -6.9,   10.2,  12.3, 145.9,   5.0,  -63.740, -29.894, 999.0, 999.0,  1526.0,  1.0,  1.0,  1.0,  1.0,  1.0, 99.0
 239.1,  845.0,  11.2,   7.0,  74.9,   -7.1,   10.1,  12.3, 144.9,   5.0,  -63.740, -29.893, 999.0, 999.0,  1573.5,  1.0,  1.0,  1.0,  1.0,  1.0, 99.0
 248.8,  840.0,  11.0,   6.6,  74.4,   -7.1,    9.8,  12.1, 144.0,   4.5,  -63.741, -29.893, 999.0, 999.0,  1622.6,  1.0,  1.0,  1.0,  1.0,  1.0, 99.0
 258.9,  835.0,  10.7,   5.6,  70.8,   -6.2,    9.3,  11.1, 146.3,   6.0,  -63.742, -29.892, 999.0, 999.0,  1672.5,  1.0,  1.0,  1.0,  1.0,  1.0, 99.0
 267.5,  830.0,  10.4,   5.1,  69.8,   -5.6,    8.9,  10.5, 147.6,   6.5,  -63.742, -29.891, 999.0, 999.0,  1722.0,  1.0,  1.0,  1.0,  1.0,  1.0, 99.0
 277.3,  825.0,  10.0,   5.3,  72.2,   -5.0,    8.7,  10.0, 150.1,   6.0,  -63.743, -29.890, 999.0, 999.0,  1772.0,  1.0,  1.0,  1.0,  1.0,  1.0, 99.0
 288.0,  820.0,   9.8,   4.2,  67.9,   -5.6,    8.6,  10.3, 146.9,   5.0,  -63.743, -29.889, 999.0, 999.0,  1823.0,  1.0,  1.0,  1.0,  1.0,  1.0, 99.0
 297.0,  815.0,   9.5,   2.5,  61.5,   -6.1,    8.5,  10.5, 144.3,   5.0,  -63.744, -29.889, 999.0, 999.0,  1874.0,  1.0,  1.0,  1.0,  1.0,  1.0, 99.0
 307.4,  810.0,   9.0,   1.9,  60.9,   -7.3,    8.1,  10.9, 138.2,   5.0,  -63.745, -29.888, 999.0, 999.0,  1925.0,  1.0,  1.0,  1.0,  1.0,  1.0, 99.0
 316.5,  805.0,   8.6,   1.2,  60.0,   -7.6,    7.5,  10.7, 134.7,   6.0,  -63.745, -29.887, 999.0, 999.0,  1976.3,  1.0,  1.0,  1.0,  1.0,  1.0, 99.0
 326.0,  800.0,   8.2,   0.6,  58.8,   -8.3,    6.9,  10.8, 129.7,   6.0,  -63.746, -29.886, 999.0, 999.0,  2028.0,  1.0,  1.0,  1.0,  1.0,  1.0, 99.0
 335.3,  795.0,   8.1,  -3.7,  42.9,   -8.2,    6.8,  10.6, 129.5,   4.5,  -63.747, -29.886, 999.0, 999.0,  2079.0,  1.0,  1.0,  1.0,  1.0,  1.0, 99.0
 345.0,  790.0,   7.8,  -5.8,  37.6,   -7.5,    5.9,   9.6, 128.0,   5.2,  -63.748, -29.885, 999.0, 999.0,  2131.5,  1.0,  1.0,  1.0,  1.0,  1.0, 99.0
 354.2,  785.0,   7.3,  -6.8,  36.1,   -6.5,    5.8,   8.7, 131.9,   5.5,  -63.748, -29.885, 999.0, 999.0,  2184.0,  1.0,  1.0,  1.0,  1.0,  1.0, 99.0
 364.8,  780.0,   7.1,  -6.6,  37.0,   -5.8,    5.3,   7.9, 132.5,   5.0,  -63.749, -29.884, 999.0, 999.0,  2236.0,  1.0,  1.0,  1.0,  1.0,  1.0, 99.0
 374.5,  775.0,   7.0,  -5.7,  39.9,   -5.6,    4.5,   7.2, 128.9,   6.0,  -63.750, -29.884, 999.0, 999.0,  2289.3,  1.0,  1.0,  1.0,  1.0,  1.0, 99.0
 384.6,  770.0,   6.8,  -5.4,  41.6,   -5.0,    3.7,   6.2, 126.5,   5.5,  -63.750, -29.884, 999.0, 999.0,  2342.3,  1.0,  1.0,  1.0,  1.0,  1.0, 99.0
 395.1,  765.0,   6.7,  -7.3,  36.3,   -4.7,    2.1,   5.2, 113.8,   5.5,  -63.751, -29.883, 999.0, 999.0,  2396.0,  1.0,  1.0,  1.0,  1.0,  1.0, 99.0
 406.7,  760.0,   7.1, -11.1,  26.1,   -4.0,    1.5,   4.3, 110.0,   4.5,  -63.751, -29.883, 999.0, 999.0,  2450.0,  1.0,  1.0,  1.0,  1.0,  1.0, 99.0
 416.7,  755.0,   6.7, -11.7,  25.6,   -4.4,    1.4,   4.6, 108.1,   5.5,  -63.752, -29.883, 999.0, 999.0,  2504.0,  1.0,  1.0,  1.0,  1.0,  1.0, 99.0
 428.5,  750.0,   6.7, -11.6,  25.6,   -3.4,    1.2,   3.6, 110.1,   4.0,  -63.752, -29.883, 999.0, 999.0,  2558.0,  1.0,  1.0,  1.0,  1.0,  1.0, 99.0
 439.0,  745.0,   7.5,  -9.5,  28.7,   -1.8,    0.6,   1.9, 109.9,   4.0,  -63.753, -29.883, 999.0, 999.0,  2613.0,  1.0,  1.0,  1.0,  1.0,  1.0, 99.0
 452.0,  740.0,   7.8,  -8.3,  30.9,    1.0,   -0.7,   1.2, 305.0,   3.5,  -63.753, -29.883, 999.0, 999.0,  2669.0,  2.0,  1.0,  1.0,  1.0,  1.0, 99.0
 462.3,  735.0,   7.5,  -6.3,  37.0,    2.3,   -0.4,   2.4, 279.7,   6.5,  -63.752, -29.883, 999.0, 999.0,  2725.2,  1.0,  1.0,  1.0,  1.0,  1.0, 99.0
 473.7,  730.0,   7.0,  -5.8,  39.7,    2.4,   -0.4,   2.4, 279.7,   4.5,  -63.752, -29.883, 999.0, 999.0,  2780.8,  1.0,  1.0,  1.0,  1.0,  1.0, 99.0
 484.8,  725.0,   6.6,  -5.1,  43.2,    2.6,    0.0,   2.6, 270.0,   6.0,  -63.752, -29.883, 999.0, 999.0,  2836.8,  1.0,  1.0,  1.0,  1.0,  1.0, 99.0
 496.2,  720.0,   6.3,  -2.9,  51.6,    3.5,    0.0,   3.5, 270.0,   6.0,  -63.752, -29.883, 999.0, 999.0,  2894.2,  1.0,  1.0,  1.0,  1.0,  1.0, 99.0
 509.0,  715.0,   5.9,  -0.5,  63.4,    4.8,   -0.6,   4.8, 277.2,   4.5,  -63.751, -29.883, 999.0, 999.0,  2950.5,  1.0,  1.0,  1.0,  1.0,  1.0, 99.0
 521.6,  710.0,   5.4,  -0.4,  66.1,    4.6,   -1.3,   4.8, 285.6,   5.0,  -63.750, -29.883, 999.0, 999.0,  3007.8,  1.0,  1.0,  1.0,  1.0,  1.0, 99.0
 532.8,  705.0,   5.2,   1.1,  74.9,    5.9,   -1.9,   6.2, 288.1,   7.5,  -63.750, -29.883, 999.0, 999.0,  3066.8,  1.0,  1.0,  1.0,  1.0,  1.0, 99.0
 544.1,  700.0,   5.5,   3.8,  88.6,    7.2,   -2.8,   7.7, 291.0,   5.5,  -63.749, -29.883, 999.0, 999.0,  3124.6,  1.0,  1.0,  1.0,  1.0,  1.0, 99.0
 555.7,  695.0,   5.8,   4.9,  94.0,    9.2,   -3.5,   9.8, 290.8,   3.5,  -63.748, -29.884, 999.0, 999.0,  3183.8,  1.0,  1.0,  1.0,  1.0,  1.0, 99.0
 568.7,  690.0,   5.8,   4.8,  93.5,    9.9,   -3.9,  10.6, 291.4,   5.0,  -63.747, -29.884, 999.0, 999.0,  3242.7,  1.0,  1.0,  1.0,  1.0,  1.0, 99.0
 581.5,  685.0,   5.3,   4.3,  93.2,   10.4,   -5.0,  11.6, 295.9,   5.0,  -63.745, -29.885, 999.0, 999.0,  3302.5,  1.0,  1.0,  1.0,  1.0,  1.0, 99.0
 594.7,  680.0,   5.1,   3.8,  90.8,    9.9,   -5.9,  11.5, 301.0,   4.5,  -63.744, -29.885, 999.0, 999.0,  3362.4,  1.0,  1.0,  1.0,  1.0,  1.0, 99.0
 607.0,  675.0,   4.9,   3.1,  88.2,   10.8,   -6.0,  12.4, 299.1,   5.5,  -63.743, -29.886, 999.0, 999.0,  3422.5,  1.0,  1.0,  1.0,  1.0,  1.0, 99.0
 619.8,  670.0,   4.5,   2.2,  85.3,   10.6,   -5.2,  11.8, 296.2,   5.0,  -63.741, -29.887, 999.0, 999.0,  3482.9,  1.0,  1.0,  1.0,  1.0,  1.0, 99.0
 632.3,  665.0,   4.0,   1.8,  85.5,   10.4,   -4.9,  11.5, 295.2,   4.5,  -63.740, -29.887, 999.0, 999.0,  3544.3,  1.0,  1.0,  1.0,  1.0,  1.0, 99.0
 644.5,  660.0,   3.6,   1.1,  83.7,    9.8,   -4.0,  10.5, 292.1,   5.0,  -63.739, -29.888, 999.0, 999.0,  3605.5,  1.0,  1.0,  1.0,  1.0,  1.0, 99.0
 656.5,  655.0,   3.0,   0.8,  85.5,    9.9,   -4.4,  10.8, 293.8,   5.0,  -63.737, -29.888, 999.0, 999.0,  3667.5,  1.0,  1.0,  1.0,  1.0,  1.0, 99.0
 667.6,  650.0,   2.4,   0.6,  88.0,   10.8,   -4.8,  11.8, 294.0,   6.0,  -63.736, -29.889, 999.0, 999.0,  3728.6,  1.0,  1.0,  1.0,  1.0,  1.0, 99.0
 677.6,  645.0,   1.8,   0.3,  89.8,   11.1,   -5.0,  12.2, 294.4,   7.0,  -63.735, -29.889, 999.0, 999.0,  3792.5,  1.0,  1.0,  1.0,  1.0,  1.0, 99.0
 690.8,  640.0,   1.2,   0.1,  92.4,   11.3,   -4.0,  12.0, 289.5,   5.5,  -63.734, -29.890, 999.0, 999.0,  3855.4,  1.0,  1.0,  1.0,  1.0,  1.0, 99.0
 701.6,  635.0,   0.6,  -0.2,  94.3,   10.4,   -3.0,  10.9, 286.2,   6.5,  -63.732, -29.890, 999.0, 999.0,  3917.6,  1.0,  1.0,  1.0,  1.0,  1.0, 99.0
 713.3,  630.0,   0.1,  -0.6,  94.5,    9.8,   -2.0,  10.0, 281.4,   4.0,  -63.731, -29.890, 999.0, 999.0,  3981.3,  1.0,  1.0,  1.0,  1.0,  1.0, 99.0
 723.5,  625.0,  -0.3,  -1.5,  91.5,    9.3,   -1.8,   9.5, 281.0,   8.0,  -63.730, -29.890, 999.0, 999.0,  4045.3,  1.0,  1.0,  1.0,  1.0,  1.0, 99.0
 734.2,  620.0,  -0.8,  -2.1,  90.6,   10.1,   -1.6,  10.2, 279.1,   5.5,  -63.729, -29.891, 999.0, 999.0,  4109.3,  1.0,  1.0,  1.0,  1.0,  1.0, 99.0
 746.8,  615.0,  -1.4,  -2.3,  93.6,   10.5,   -2.0,  10.7, 281.0,   5.0,  -63.727, -29.891, 999.0, 999.0,  4173.8,  1.0,  1.0,  1.0,  1.0,  1.0, 99.0
 758.5,  610.0,  -1.9,  -2.8,  93.9,   11.1,   -2.0,  11.3, 280.2,   5.0,  -63.726, -29.891, 999.0, 999.0,  4239.5,  1.0,  1.0,  1.0,  1.0,  1.0, 99.0
 771.7,  605.0,  -2.5,  -3.0,  95.9,   10.8,   -2.3,  11.0, 281.9,   5.0,  -63.725, -29.891, 999.0, 999.0,  4304.6,  1.0,  1.0,  1.0,  1.0,  1.0, 99.0
 787.2,  600.0,  -3.0,  -3.4,  97.2,   11.4,   -1.8,  11.6, 279.0,   4.5,  -63.723, -29.892, 999.0, 999.0,  4370.4,  1.0,  1.0,  1.0,  1.0,  1.0, 99.0
 801.3,  595.0,  -3.5,  -4.0,  96.3,   11.9,   -0.3,  11.9, 271.3,   5.5,  -63.721, -29.892, 999.0, 999.0,  4436.9,  1.0,  1.0,  1.0,  1.0,  1.0, 99.0
 813.8,  590.0,  -4.2,  -4.7,  95.9,   12.1,    0.8,  12.1, 266.2,   5.0,  -63.720, -29.892, 999.0, 999.0,  4503.8,  1.0,  1.0,  1.0,  1.0,  1.0, 99.0
 827.4,  585.0,  -4.6,  -5.2,  95.1,   12.1,    0.8,  12.1, 266.2,   4.8,  -63.718, -29.892, 999.0, 999.0,  4570.9,  1.0,  1.0,  1.0,  1.0,  1.0, 99.0
 839.3,  580.0,  -5.2,  -5.8,  95.3,   13.6,    0.5,  13.6, 267.9,   6.0,  -63.716, -29.892, 999.0, 999.0,  4638.0,  1.0,  1.0,  1.0,  1.0,  1.0, 99.0
 849.6,  575.0,  -5.3,  -6.3,  92.7,   15.3,    1.0,  15.4, 266.1,   6.5,  -63.715, -29.892, 999.0, 999.0,  4706.4,  1.0,  1.0,  1.0,  1.0,  1.0, 99.0
 858.4,  570.0,  -5.3,  -7.4,  85.4,   16.7,    1.8,  16.8, 263.9,   6.4,  -63.713, -29.892, 999.0, 999.0,  4774.8,  1.0,  1.0,  1.0,  1.0,  1.0, 99.0
 869.3,  565.0,  -5.3,  -9.2,  74.1,   18.7,    3.2,  19.0, 260.4,   6.5,  -63.711, -29.891, 999.0, 999.0,  4844.7,  1.0,  1.0,  1.0,  1.0,  1.0, 99.0
 879.5,  560.0,  -5.0, -10.9,  63.3,   19.7,    3.5,  20.1, 260.0,   5.5,  -63.709, -29.891, 999.0, 999.0,  4914.3,  1.0,  1.0,  1.0,  1.0,  1.0, 99.0
 890.0,  555.0,  -5.3, -12.1,  58.6,   20.6,    3.3,  20.9, 260.9,   7.5,  -63.707, -29.890, 999.0, 999.0,  4984.0,  1.0,  1.0,  1.0,  1.0,  1.0, 99.0
 899.7,  550.0,  -6.0, -12.9,  58.1,   21.1,    3.7,  21.4, 260.0,   8.5,  -63.705, -29.890, 999.0, 999.0,  5055.2,  1.0,  1.0,  1.0,  1.0,  1.0, 99.0
 912.6,  545.0,  -6.2, -13.1,  58.3,   21.7,    3.0,  21.9, 262.1,   5.0,  -63.702, -29.890, 999.0, 999.0,  5126.9,  1.0,  1.0,  1.0,  1.0,  1.0, 99.0
 925.5,  540.0,  -6.6, -13.0,  60.4,   22.9,    2.2,  23.0, 264.6,   6.0,  -63.699, -29.889, 999.0, 999.0,  5198.8,  1.0,  1.0,  1.0,  1.0,  1.0, 99.0
 939.2,  535.0,  -6.9, -12.6,  63.8,   24.8,    1.3,  24.8, 267.0,   3.5,  -63.695, -29.889, 999.0, 999.0,  5272.2,  1.0,  1.0,  1.0,  1.0,  1.0, 99.0
 954.0,  530.0,  -7.3, -13.4,  61.6,   26.2,    0.9,  26.2, 268.0,   6.0,  -63.691, -29.889, 999.0, 999.0,  5344.0,  1.0,  1.0,  1.0,  1.0,  1.0, 99.0
 972.0,  525.0,  -7.9, -14.0,  61.3,   25.8,    0.9,  25.8, 268.0,   4.5,  -63.687, -29.889, 999.0, 999.0,  5418.0,  1.0,  1.0,  1.0,  1.0,  1.0, 99.0
 987.1,  520.0,  -8.5, -15.2,  58.3,   24.4,    0.6,  24.5, 268.6,   6.0,  -63.682, -29.889, 999.0, 999.0,  5492.9,  1.0,  1.0,  1.0,  1.0,  1.0, 99.0
1000.6,  515.0,  -8.9, -16.4,  54.4,   25.0,   -1.5,  25.0, 273.4,   6.3,  -63.680, -29.889, 999.0, 999.0,  5567.9,  1.0,  1.0,  1.0,  1.0,  1.0, 99.0
1014.3,  510.0,  -8.3, -18.8,  42.7,   27.0,   -2.4,  27.1, 275.1,   5.3,  -63.676, -29.889, 999.0, 999.0,  5644.5,  1.0,  1.0,  1.0,  1.0,  1.0, 99.0
1030.3,  505.0,  -9.2, -19.3,  43.9,   27.9,   -2.4,  28.0, 274.9,   4.7,  -63.671, -29.889, 999.0, 999.0,  5719.9,  1.0,  1.0,  1.0,  1.0,  1.0, 99.0
1044.9,  500.0, -10.0, -19.6,  45.5,   27.1,   -3.3,  27.3, 276.9,   6.5,  -63.667, -29.890, 999.0, 999.0,  5796.9,  1.0,  2.0,  2.0,  1.0,  1.0, 99.0
1057.3,  495.0, -10.5, -20.3,  44.3,   27.1,   -4.6,  27.5, 279.6,   6.3,  -63.663, -29.890, 999.0, 999.0,  5873.9,  1.0,  1.0,  1.0,  1.0,  1.0, 99.0
1069.6,  490.0, -11.4, -20.0,  49.1,   28.0,   -7.3,  29.0, 284.6,   5.7,  -63.660, -29.891, 999.0, 999.0,  5951.6,  1.0,  1.0,  1.0,  1.0,  1.0, 99.0
1084.4,  485.0, -12.0, -20.2,  50.6,   29.6,   -7.9,  30.7, 285.0,   3.7,  -63.656, -29.892, 999.0, 999.0,  6030.6,  1.0,  1.0,  1.0,  1.0,  1.0, 99.0
1102.7,  480.0, -12.4, -22.0,  44.7,   30.7,   -6.0,  31.3, 281.0,   4.5,  -63.650, -29.893, 999.0, 999.0,  6110.0,  1.0,  1.0,  1.0,  1.0,  1.0, 99.0
1117.3,  475.0, -13.2, -23.6,  41.2,   31.6,   -6.1,  32.2, 280.9,   5.0,  -63.645, -29.894, 999.0, 999.0,  6188.7,  1.0,  1.0,  1.0,  1.0,  1.0, 99.0
1132.4,  470.0, -13.9, -24.1,  41.9,   32.0,   -6.8,  32.7, 282.0,   5.7,  -63.640, -29.895, 999.0, 999.0,  6269.6,  1.0,  1.0,  1.0,  1.0,  1.0, 99.0
1147.1,  465.0, -14.8, -24.5,  43.4,   31.6,   -6.1,  32.2, 281.0,   5.5,  -63.635, -29.896, 999.0, 999.0,  6350.3,  1.0,  1.0,  1.0,  1.0,  1.0, 99.0
1160.6,  460.0, -15.5, -24.6,  45.7,   32.3,   -5.1,  32.7, 279.0,   5.5,  -63.631, -29.896, 999.0, 999.0,  6433.1,  1.0,  1.0,  1.0,  1.0,  1.0, 99.0
1173.3,  455.0, -16.4, -24.6,  49.1,   32.7,   -4.6,  33.0, 278.0,   6.6,  -63.626, -29.897, 999.0, 999.0,  6515.7,  1.0,  1.0,  1.0,  1.0,  1.0, 99.0
1186.3,  450.0, -17.2, -25.8,  47.1,   32.8,   -4.6,  33.1, 278.0,   6.0,  -63.622, -29.897, 999.0, 999.0,  6597.7,  1.0,  1.0,  1.0,  1.0,  1.0, 99.0
1202.0,  445.0, -18.1, -26.0,  49.8,   32.7,   -4.0,  32.9, 277.0,   5.0,  -63.617, -29.898, 999.0, 999.0,  6682.0,  2.0,  2.0,  2.0,  1.0,  1.0, 99.0
1218.8,  440.0, -18.7, -27.2,  47.3,   33.9,   -3.0,  34.1, 275.1,   4.5,  -63.611, -29.898, 999.0, 999.0,  6765.6,  1.0,  1.0,  1.0,  1.0,  1.0, 99.0
1236.0,  435.0, -19.4, -28.8,  43.3,   36.1,   -1.9,  36.1, 273.0,   5.3,  -63.605, -29.899, 999.0, 999.0,  6850.7,  1.0,  1.0,  1.0,  1.0,  1.0, 99.0
1253.7,  430.0, -19.5, -30.5,  37.2,   37.3,   -2.6,  37.4, 274.0,   5.5,  -63.598, -29.899, 999.0, 999.0,  6936.4,  1.0,  1.0,  1.0,  1.0,  1.0, 99.0
1274.8,  425.0, -19.6, -33.1,  29.3,   38.0,   -2.7,  38.1, 274.1,   5.0,  -63.590, -29.900, 999.0, 999.0,  7023.0,  1.0,  1.0,  1.0,  1.0,  1.0, 99.0
1295.0,  420.0, -20.5, -33.3,  30.7,   37.8,   -2.7,  37.9, 274.0,   4.5,  -63.582, -29.900, 999.0, 999.0,  7111.5,  1.0,  1.0,  1.0,  1.0,  1.0, 99.0
1313.0,  415.0, -21.2, -34.0,  30.6,   38.2,   -3.3,  38.3, 274.9,   5.0,  -63.575, -29.901, 999.0, 999.0,  7200.0,  1.0,  1.0,  1.0,  1.0,  1.0, 99.0
1330.0,  410.0, -21.6, -37.9,  21.5,   38.3,   -3.3,  38.4, 274.9,   4.5,  -63.568, -29.901, 999.0, 999.0,  7289.0,  1.0,  1.0,  1.0,  1.0,  1.0, 99.0
1350.8,  405.0, -22.3, -39.7,  19.1,   38.0,   -2.7,  38.1, 274.1,   4.5,  -63.560, -29.902, 999.0, 999.0,  7378.6,  1.0,  1.0,  1.0,  1.0,  1.0, 99.0
1372.8,  400.0, -23.2, -40.4,  19.2,   38.3,   -2.7,  38.4, 274.0,   4.5,  -63.551, -29.902, 999.0, 999.0,  7470.6,  1.0,  1.0,  1.0,  1.0,  1.0, 99.0
1390.4,  395.0, -24.1, -40.7,  20.1,   38.8,   -2.7,  38.9, 274.0,   4.5,  -63.544, -29.903, 999.0, 999.0,  7561.8,  1.0,  1.0,  1.0,  1.0,  1.0, 99.0
1410.5,  390.0, -25.0, -41.2,  20.6,   38.3,   -2.5,  38.4, 273.8,   4.5,  -63.536, -29.903, 999.0, 999.0,  7654.3,  1.0,  1.0,  1.0,  1.0,  1.0, 99.0
1432.0,  385.0, -25.9, -41.9,  20.8,   38.5,   -1.3,  38.5, 271.9,   4.0,  -63.527, -29.904, 999.0, 999.0,  7749.0,  1.0,  1.0,  1.0,  1.0,  1.0, 99.0
1452.0,  380.0, -26.7, -43.0,  20.0,   38.3,    0.0,  38.3, 270.0,   4.5,  -63.519, -29.904, 999.0, 999.0,  7843.0,  1.0,  1.0,  1.0,  1.0,  1.0, 99.0
1473.0,  375.0, -27.5, -44.9,  17.5,   37.9,    1.3,  37.9, 268.0,   4.5,  -63.511, -29.904, 999.0, 999.0,  7938.5,  1.0,  1.0,  1.0,  1.0,  1.0, 99.0
1494.3,  370.0, -28.3, -46.8,  15.2,   37.9,    1.3,  37.9, 268.0,   5.0,  -63.503, -29.904, 999.0, 999.0,  8035.7,  1.0,  1.0,  1.0,  1.0,  1.0, 99.0
1516.5,  365.0, -29.1, -48.0,  14.4,   37.5,    0.7,  37.5, 268.9,   4.0,  -63.494, -29.903, 999.0, 999.0,  8132.0,  1.0,  1.0,  1.0,  1.0,  1.0, 99.0
1538.7,  360.0, -29.9, -48.5,  14.6,   38.1,    1.3,  38.1, 268.0,   5.5,  -63.486, -29.903, 999.0, 999.0,  8230.7,  1.0,  1.0,  1.0,  1.0,  1.0, 99.0
1558.7,  355.0, -30.4, -49.7,  13.4,   39.7,    2.8,  39.8, 266.0,   6.5,  -63.477, -29.903, 999.0, 999.0,  8329.3,  1.0,  1.0,  1.0,  1.0,  1.0, 99.0
1578.5,  350.0, -31.2, -50.9,  12.6,   40.6,    3.8,  40.8, 264.7,   4.5,  -63.469, -29.902, 999.0, 999.0,  8430.3,  1.0,  1.0,  1.0,  1.0,  1.0, 99.0
1600.5,  345.0, -32.2, -51.7,  12.7,   41.3,    5.8,  41.7, 262.0,   4.0,  -63.460, -29.901, 999.0, 999.0,  8533.0,  1.0,  1.0,  1.0,  1.0,  1.0, 99.0
1626.0,  340.0, -33.0, -52.2,  12.9,   42.2,    6.7,  42.7, 261.0,   4.5,  -63.449, -29.900, 999.0, 999.0,  8636.0,  1.0,  1.0,  1.0,  1.0,  1.0, 99.0
1649.6,  335.0, -33.9, -52.6,  13.5,   42.8,    6.0,  43.2, 262.0,   5.5,  -63.438, -29.898, 999.0, 999.0,  8738.8,  1.0,  1.0,  1.0,  1.0,  1.0, 99.0
1671.5,  330.0, -34.8, -52.8,  14.2,   43.4,    6.7,  43.9, 261.2,   4.0,  -63.428, -29.897, 999.0, 999.0,  8844.0,  1.0,  1.0,  1.0,  1.0,  1.0, 99.0
