Time,Press,Temp,Dewpt,RH,Ucmp,Vcmp,spd,dir,Wcm, Lon,Lat,Ele,Azi,Alt, Qp,Qt,Qr, Qu,Qv,Qd
   0.0,  969.3,  25.4,  19.3,  69.0,   -0.1,   -3.6,   3.6,   2.0, 999.0,  -63.726, -29.906, 999.0, 999.0,   341.0,  2.0,  2.0,  2.0,  1.0,  1.0,  9.0
   8.0,  965.0,  25.7,  19.3,  67.7,   -0.1,   -8.3,   8.3,   0.7,   5.5,  -63.726, -29.907, 999.0, 999.0,   381.0,  1.0,  1.0,  1.0,  1.0,  1.0, 99.0
  16.0,  960.0,  25.2,  18.8,  67.8,    0.2,   -9.1,   9.1, 358.7,   4.0,  -63.726, -29.907, 999.0, 999.0,   426.0,  2.0,  1.0,  1.0,  1.0,  1.0, 99.0
  23.1,  955.0,  24.8,  18.7,  68.9,   -0.1,  -10.1,  10.1,   0.6,   7.0,  -63.726, -29.908, 999.0, 999.0,   471.9,  2.0,  1.0,  1.0,  1.0,  1.0, 99.0
  29.9,  950.0,  24.3,  18.4,  69.6,   -0.4,  -10.6,  10.6,   2.0,   6.8,  -63.726, -29.908, 999.0, 999.0,   518.0,  1.0,  1.0,  1.0,  1.0,  1.0, 99.0
  37.4,  945.0,  24.0,  18.4,  70.9,   -0.2,  -11.3,  11.3,   1.0,   5.5,  -63.726, -29.909, 999.0, 999.0,   564.9,  1.0,  1.0,  1.0,  1.0,  1.0, 99.0
  46.4,  940.0,  23.6,  18.3,  72.1,   -0.2,  -12.2,  12.2,   0.9,   5.5,  -63.726, -29.910, 999.0, 999.0,   611.2,  1.0,  1.0,  1.0,  1.0,  1.0, 99.0
  54.4,  935.0,  23.1,  18.1,  73.4,    0.3,  -13.2,  13.2, 358.9,   5.8,  -63.726, -29.911, 999.0, 999.0,   658.2,  1.0,  1.0,  1.0,  1.0,  1.0, 99.0
  62.0,  930.0,  22.7,  18.0,  74.8,    0.5,  -14.1,  14.1, 358.0,   7.0,  -63.726, -29.912, 999.0, 999.0,   705.0,  1.0,  1.0,  1.0,  1.0,  1.0, 99.0
  70.0,  925.0,  22.3,  18.0,  76.8,    0.5,  -15.6,  15.6, 358.2,   6.0,  -63.726, -29.913, 999.0, 999.0,   755.0,  1.0,  1.0,  1.0,  1.0,  1.0, 99.0
  79.2,  920.0,  22.3,  17.7,  75.4,    0.3,  -17.4,  17.4, 359.0,   6.5,  -63.726, -29.914, 999.0, 999.0,   798.8,  1.0,  1.0,  1.0,  1.0,  1.0, 99.0
  87.8,  915.0,  22.8,  17.0,  69.8,    0.0,  -18.5,  18.5,   0.0,   5.5,  -63.726, -29.916, 999.0, 999.0,   847.0,  1.0,  1.0,  1.0,  1.0,  1.0, 99.0
  97.1,  910.0,  22.9,  16.7,  67.9,    0.3,  -19.2,  19.2, 359.1,   5.0,  -63.726, -29.918, 999.0, 999.0,   894.5,  1.0,  1.0,  1.0,  1.0,  1.0, 99.0
 106.5,  905.0,  22.5,  16.4,  68.5,    1.0,  -19.3,  19.3, 357.0,   5.5,  -63.726, -29.919, 999.0, 999.0,   942.0,  1.0,  1.0,  1.0,  1.0,  1.0, 99.0
 115.8,  900.0,  22.1,  16.3,  69.6,    1.0,  -19.4,  19.4, 357.0,   4.8,  -63.726, -29.921, 999.0, 999.0,   990.7,  1.0,  1.0,  1.0,  1.0,  1.0, 99.0
 125.5,  895.0,  21.7,  16.3,  71.5,    1.0,  -19.4,  19.5, 357.1,   5.5,  -63.725, -29.922, 999.0, 999.0,  1039.3,  1.0,  1.0,  1.0,  1.0,  1.0, 99.0
 134.5,  890.0,  21.3,  16.1,  72.3,    0.6,  -19.3,  19.3, 358.2,   5.5,  -63.726, -29.924, 999.0, 999.0,  1087.9,  1.0,  1.0,  1.0,  1.0,  1.0, 99.0
 143.2,  885.0,  20.8,  16.1,  74.7,    0.0,  -19.4,  19.4,   0.0,   5.8,  -63.725, -29.926, 999.0, 999.0,  1136.5,  1.0,  1.0,  1.0,  1.0,  1.0, 99.0
 152.4,  880.0,  20.4,  15.7,  74.2,    0.1,  -19.3,  19.3, 359.8,   5.5,  -63.725, -29.927, 999.0, 999.0,  1186.0,  1.0,  1.0,  1.0,  1.0,  1.0, 99.0
 161.1,  875.0,  20.0,  15.9,  77.5,    0.2,  -19.2,  19.2, 359.5,   7.0,  -63.725, -29.929, 999.0, 999.0,  1235.5,  1.0,  1.0,  1.0,  1.0,  1.0, 99.0
 170.2,  870.0,  19.5,  16.1,  80.4,    0.3,  -19.4,  19.4, 359.1,   5.3,  -63.725, -29.930, 999.0, 999.0,  1284.3,  1.0,  1.0,  1.0,  1.0,  1.0, 99.0
 178.9,  865.0,  19.1,  16.0,  82.3,    0.3,  -19.6,  19.6, 359.1,   6.2,  -63.725, -29.932, 999.0, 999.0,  1335.0,  1.0,  1.0,  1.0,  1.0,  1.0, 99.0
 188.4,  860.0,  18.6,  15.8,  84.0,    0.3,  -19.4,  19.4, 359.1,   5.3,  -63.725, -29.933, 999.0, 999.0,  1384.6,  1.0,  1.0,  1.0,  1.0,  1.0, 99.0
 197.1,  855.0,  18.1,  15.5,  85.2,   -0.2,  -19.3,  19.3,   0.5,   6.0,  -63.725, -29.935, 999.0, 999.0,  1434.9,  1.0,  1.0,  1.0,  1.0,  1.0, 99.0
 207.0,  850.0,  17.7,  15.1,  84.7,    0.0,  -19.1,  19.1,   0.0,   6.0,  -63.725, -29.937, 999.0, 999.0,  1485.0,  2.0,  1.0,  1.0,  1.0,  1.0, 99.0
 216.4,  845.0,  17.2,  14.7,  85.1,    0.4,  -19.1,  19.1, 358.8,   6.5,  -63.725, -29.938, 999.0, 999.0,  1535.8,  1.0,  1.0,  1.0,  1.0,  1.0, 99.0
 225.1,  840.0,  16.8,  14.4,  86.0,    1.2,  -19.0,  19.1, 356.5,   4.5,  -63.725, -29.940, 999.0, 999.0,  1586.0,  1.0,  1.0,  1.0,  1.0,  1.0, 99.0
 234.5,  835.0,  16.4,  14.3,  87.6,    1.6,  -18.6,  18.7, 355.1,   4.5,  -63.725, -29.941, 999.0, 999.0,  1637.3,  1.0,  1.0,  1.0,  1.0,  1.0, 99.0
 243.8,  830.0,  16.1,  13.3,  83.5,    1.6,  -18.8,  18.9, 355.2,   5.0,  -63.725, -29.943, 999.0, 999.0,  1688.0,  1.0,  1.0,  1.0,  1.0,  1.0, 99.0
 253.1,  825.0,  15.7,  12.7,  82.1,    2.0,  -18.8,  18.9, 353.9,   5.5,  -63.725, -29.945, 999.0, 999.0,  1740.0,  1.0,  1.0,  1.0,  1.0,  1.0, 99.0
 261.6,  820.0,  15.5,  11.4,  76.5,    1.9,  -18.4,  18.5, 354.1,   5.0,  -63.725, -29.946, 999.0, 999.0,  1791.8,  1.0,  1.0,  1.0,  1.0,  1.0, 99.0
 271.7,  815.0,  15.3,   9.9,  70.1,    2.2,  -17.7,  17.9, 353.1,   4.0,  -63.724, -29.948, 999.0, 999.0,  1843.9,  1.0,  1.0,  1.0,  1.0,  1.0, 99.0
 281.0,  810.0,  15.1,   8.8,  66.2,    1.3,  -16.9,  17.0, 355.5,   5.2,  -63.724, -29.949, 999.0, 999.0,  1895.5,  1.0,  1.0,  1.0,  1.0,  1.0, 99.0
 291.2,  805.0,  14.7,   8.5,  66.4,    0.4,  -16.3,  16.3, 358.5,   5.5,  -63.724, -29.951, 999.0, 999.0,  1948.6,  1.0,  1.0,  1.0,  1.0,  1.0, 99.0
 301.3,  800.0,  14.2,   9.5,  72.9,    0.6,  -16.1,  16.1, 357.9,   5.8,  -63.724, -29.952, 999.0, 999.0,  2000.9,  1.0,  1.0,  1.0,  1.0,  1.0, 99.0
 310.8,  795.0,  13.7,   9.3,  74.8,    0.6,  -15.8,  15.8, 357.7,   5.4,  -63.724, -29.953, 999.0, 999.0,  2053.9,  1.0,  1.0,  1.0,  1.0,  1.0, 99.0
 320.8,  790.0,  13.3,   9.6,  78.2,    1.8,  -15.9,  16.0, 353.5,   5.3,  -63.724, -29.955, 999.0, 999.0,  2107.3,  1.0,  1.0,  1.0,  1.0,  1.0, 99.0
 331.6,  785.0,  12.9,   9.1,  77.8,    1.7,  -15.8,  15.9, 353.7,   5.0,  -63.724, -29.957, 999.0, 999.0,  2160.8,  1.0,  1.0,  1.0,  1.0,  1.0, 99.0
 341.8,  780.0,  12.6,   9.3,  80.2,    1.7,  -15.8,  15.9, 353.9,   5.5,  -63.723, -29.958, 999.0, 999.0,  2214.9,  1.0,  1.0,  1.0,  1.0,  1.0, 99.0
 352.2,  775.0,  12.4,   8.7,  78.2,    1.1,  -15.7,  15.7, 356.0,   5.3,  -63.723, -29.959, 999.0, 999.0,  2268.1,  1.0,  1.0,  1.0,  1.0,  1.0, 99.0
 362.5,  770.0,  12.2,   7.5,  73.3,    0.5,  -15.0,  15.0, 358.1,   5.5,  -63.723, -29.961, 999.0, 999.0,  2323.0,  1.0,  1.0,  1.0,  1.0,  1.0, 99.0
 372.7,  765.0,  12.2,   7.1,  70.8,    0.0,  -14.0,  14.0,   0.0,   5.5,  -63.723, -29.962, 999.0, 999.0,  2377.7,  1.0,  1.0,  1.0,  1.0,  1.0, 99.0
 382.8,  760.0,  12.1,   5.9,  65.8,   -0.2,  -13.1,  13.1,   0.9,   5.3,  -63.723, -29.963, 999.0, 999.0,  2432.4,  1.0,  1.0,  1.0,  1.0,  1.0, 99.0
 392.0,  755.0,  11.9,   5.6,  65.2,   -0.4,  -12.8,  12.8,   1.8,   6.5,  -63.723, -29.964, 999.0, 999.0,  2488.0,  1.0,  1.0,  1.0,  1.0,  1.0, 99.0
 402.9,  750.0,  11.6,   5.4,  65.5,   -0.2,  -12.3,  12.3,   0.9,   5.0,  -63.723, -29.966, 999.0, 999.0,  2543.4,  1.0,  1.0,  1.0,  1.0,  1.0, 99.0
 413.1,  745.0,  11.7,   4.0,  59.1,   -0.3,  -11.3,  11.3,   1.5,   6.0,  -63.723, -29.967, 999.0, 999.0,  2599.5,  1.0,  1.0,  1.0,  1.0,  1.0, 99.0
 424.2,  740.0,  12.3,   4.6,  59.3,    0.8,   -9.6,   9.6, 355.2,   6.0,  -63.724, -29.968, 999.0, 999.0,  2656.1,  1.0,  1.0,  1.0,  1.0,  1.0, 99.0
 435.3,  735.0,  12.6,   3.4,  53.3,    1.0,   -8.4,   8.4, 353.4,   5.5,  -63.723, -29.969, 999.0, 999.0,  2713.3,  1.0,  1.0,  1.0,  1.0,  1.0, 99.0
 445.2,  730.0,  12.7,   2.9,  51.1,    1.1,   -7.8,   7.8, 351.6,   5.5,  -63.723, -29.970, 999.0, 999.0,  2769.6,  1.0,  1.0,  1.0,  1.0,  1.0, 99.0
 455.0,  725.0,  14.3,  -1.6,  33.4,    0.8,   -7.8,   7.8, 354.1,   8.0,  -63.723, -29.970, 999.0, 999.0,  2828.0,  1.0,  1.0,  1.0,  1.0,  1.0, 99.0
 466.4,  720.0,  14.6,  -4.2,  26.9,    0.8,   -8.0,   8.0, 354.4,   5.3,  -63.723, -29.971, 999.0, 999.0,  2886.7,  1.0,  1.0,  1.0,  1.0,  1.0, 99.0
 478.1,  715.0,  14.5,  -5.8,  24.1,    0.4,   -8.0,   8.0, 357.1,   6.2,  -63.723, -29.972, 999.0, 999.0,  2945.1,  1.0,  1.0,  1.0,  1.0,  1.0, 99.0
 488.7,  710.0,  14.0,  -6.3,  24.0,   -0.1,   -8.3,   8.3,   0.7,   5.2,  -63.723, -29.973, 999.0, 999.0,  3004.1,  1.0,  1.0,  1.0,  1.0,  1.0, 99.0
 500.0,  705.0,  13.4,  -6.6,  24.3,   -0.1,   -8.0,   8.0,   0.7,   4.0,  -63.723, -29.973, 999.0, 999.0,  3063.0,  1.0,  1.0,  1.0,  1.0,  1.0, 99.0
 510.7,  700.0,  13.0,  -7.3,  23.7,   -1.0,   -7.5,   7.5,   7.7,   4.5,  -63.723, -29.974, 999.0, 999.0,  3123.4,  1.0,  1.0,  1.0,  1.0,  1.0, 99.0
 522.0,  695.0,  12.6,  -9.2,  20.9,   -2.8,   -7.0,   7.5,  21.8,   5.5,  -63.723, -29.975, 999.0, 999.0,  3184.0,  2.0,  2.0,  2.0,  1.0,  1.0, 99.0
 535.5,  690.0,  12.3, -11.4,  17.9,   -3.9,   -6.8,   7.8,  29.6,   5.0,  -63.724, -29.976, 999.0, 999.0,  3244.5,  1.0,  1.0,  1.0,  1.0,  1.0, 99.0
 547.4,  685.0,  11.8, -13.1,  16.1,   -4.3,   -7.0,   8.2,  31.3,   6.0,  -63.724, -29.977, 999.0, 999.0,  3305.4,  1.0,  1.0,  1.0,  1.0,  1.0, 99.0
 559.3,  680.0,  11.8, -18.5,  10.4,   -3.7,   -5.8,   6.9,  32.6,   5.0,  -63.725, -29.977, 999.0, 999.0,  3366.3,  1.0,  1.0,  1.0,  1.0,  1.0, 99.0
 570.3,  675.0,  11.7, -17.6,  11.3,   -2.6,   -4.6,   5.2,  29.4,   5.0,  -63.725, -29.978, 999.0, 999.0,  3427.3,  1.0,  1.0,  1.0,  1.0,  1.0, 99.0
 582.2,  670.0,  11.6, -16.4,  12.5,   -1.8,   -3.4,   3.8,  27.8,   5.8,  -63.725, -29.978, 999.0, 999.0,  3489.3,  1.0,  1.0,  1.0,  1.0,  1.0, 99.0
 593.0,  665.0,  11.1, -16.3,  13.0,   -0.7,   -3.1,   3.1,  12.9,   6.0,  -63.725, -29.979, 999.0, 999.0,  3552.0,  2.0,  1.0,  1.0,  1.0,  1.0, 99.0
 604.6,  660.0,  10.6, -16.4,  13.4,    0.5,   -2.6,   2.6, 349.7,   6.0,  -63.725, -29.979, 999.0, 999.0,  3614.8,  2.0,  1.0,  1.0,  1.0,  1.0, 99.0
 615.7,  655.0,  10.1, -16.4,  13.7,    1.7,   -2.6,   3.1, 327.3,   4.5,  -63.725, -29.979, 999.0, 999.0,  3678.7,  2.0,  1.0,  1.0,  1.0,  1.0, 99.0
 626.5,  650.0,   9.6, -16.6,  14.1,    2.1,   -2.8,   3.5, 322.5,   5.0,  -63.725, -29.979, 999.0, 999.0,  3742.5,  1.0,  1.0,  1.0,  1.0,  1.0, 99.0
 637.8,  645.0,   9.1, -16.9,  14.2,    2.0,   -2.2,   3.0, 318.0,   8.0,  -63.725, -29.980, 999.0, 999.0,  3804.8,  2.0,  1.0,  1.0,  1.0,  1.0, 99.0
 650.7,  640.0,   8.6, -16.9,  14.7,    1.8,   -1.0,   2.1, 299.9,   5.6,  -63.725, -29.980, 999.0, 999.0,  3869.9,  1.0,  1.0,  1.0,  1.0,  1.0, 99.0
 662.7,  635.0,   7.9, -17.1,  15.1,    2.3,   -0.6,   2.4, 285.5,   5.5,  -63.724, -29.980, 999.0, 999.0,  3934.0,  1.0,  1.0,  1.0,  1.0,  1.0, 99.0
 674.6,  630.0,   7.3, -17.3,  15.5,    2.8,   -0.6,   2.8, 282.8,   4.5,  -63.724, -29.980, 999.0, 999.0,  3999.6,  1.0,  1.0,  1.0,  1.0,  1.0, 99.0
 687.1,  625.0,   6.7, -17.4,  16.0,    3.6,   -0.2,   3.6, 273.9,   4.5,  -63.724, -29.980, 999.0, 999.0,  4065.1,  1.0,  1.0,  1.0,  1.0,  1.0, 99.0
 700.0,  620.0,   6.0, -17.5,  16.6,    4.1,    0.6,   4.1, 261.7,   6.0,  -63.723, -29.980, 999.0, 999.0,  4131.0,  2.0,  2.0,  2.0,  1.0,  1.0, 99.0
 711.8,  615.0,   5.5, -17.5,  17.2,    3.9,    1.2,   4.1, 253.1,   7.0,  -63.723, -29.980, 999.0, 999.0,  4196.7,  1.0,  1.0,  1.0,  1.0,  1.0, 99.0
 725.7,  610.0,   4.9, -17.8,  17.6,    4.5,    1.0,   4.6, 257.4,   4.5,  -63.722, -29.980, 999.0, 999.0,  4262.7,  1.0,  1.0,  1.0,  1.0,  1.0, 99.0
 739.0,  605.0,   4.3, -18.0,  18.0,    5.4,    0.8,   5.5, 261.5,   5.0,  -63.722, -29.979, 999.0, 999.0,  4329.8,  1.0,  1.0,  1.0,  1.0,  1.0, 99.0
 750.8,  600.0,   3.7, -18.3,  18.3,    6.4,   -0.8,   6.4, 276.8,   7.0,  -63.721, -29.979, 999.0, 999.0,  4397.6,  1.0,  1.0,  1.0,  1.0,  1.0, 99.0
 764.0,  595.0,   3.2, -19.5,  17.1,    7.3,    0.1,   7.3, 269.2,   5.0,  -63.720, -29.980, 999.0, 999.0,  4465.0,  1.0,  1.0,  1.0,  1.0,  1.0, 99.0
 778.0,  590.0,   3.0, -22.8,  13.0,    6.9,    2.5,   7.3, 250.1,   4.5,  -63.719, -29.979, 999.0, 999.0,  4534.0,  1.0,  1.0,  1.0,  1.0,  1.0, 99.0
 791.4,  585.0,   2.9, -26.1,   9.7,    5.2,    3.0,   6.0, 240.0,   5.0,  -63.718, -29.979, 999.0, 999.0,  4603.1,  1.0,  1.0,  1.0,  1.0,  1.0, 99.0
 804.4,  580.0,   2.6, -27.8,   8.5,    3.6,    2.5,   4.4, 235.6,   6.5,  -63.717, -29.979, 999.0, 999.0,  4671.9,  1.0,  1.0,  1.0,  1.0,  1.0, 99.0
 817.2,  575.0,   2.1, -28.8,   8.0,    4.2,    2.0,   4.7, 244.0,   5.1,  -63.717, -29.978, 999.0, 999.0,  4742.4,  1.0,  1.0,  1.0,  1.0,  1.0, 99.0
 831.3,  570.0,   1.6, -28.8,   8.3,    3.6,    2.4,   4.3, 236.9,   4.5,  -63.716, -29.978, 999.0, 999.0,  4812.0,  1.0,  1.0,  1.0,  1.0,  1.0, 99.0
 842.8,  565.0,   1.2, -28.8,   8.6,    2.7,    2.9,   4.0, 222.2,   5.3,  -63.716, -29.978, 999.0, 999.0,  4882.4,  1.0,  1.0,  1.0,  1.0,  1.0, 99.0
 855.4,  560.0,   0.5, -29.0,   8.8,    2.7,    3.5,   4.4, 217.6,   4.5,  -63.715, -29.977, 999.0, 999.0,  4954.4,  1.0,  1.0,  1.0,  1.0,  1.0, 99.0
 869.7,  555.0,  -0.1, -29.4,   8.9,    3.0,    4.5,   5.4, 213.8,   4.6,  -63.715, -29.977, 999.0, 999.0,  5026.5,  1.0,  1.0,  1.0,  1.0,  1.0, 99.0
 883.3,  550.0,  -0.7, -29.7,   9.1,    3.3,    4.3,   5.4, 217.2,   5.5,  -63.715, -29.976, 999.0, 999.0,  5099.1,  2.0,  1.0,  1.0,  1.0,  1.0, 99.0
 897.3,  545.0,  -1.4, -28.6,  10.5,    3.4,    4.1,   5.3, 219.3,   4.5,  -63.714, -29.976, 999.0, 999.0,  5171.0,  1.0,  1.0,  1.0,  1.0,  1.0, 99.0
 911.1,  540.0,  -2.0, -26.4,  13.5,    3.9,    3.4,   5.2, 228.9,   5.2,  -63.714, -29.975, 999.0, 999.0,  5244.9,  1.0,  1.0,  1.0,  1.0,  1.0, 99.0
 925.7,  535.0,  -2.7, -25.1,  16.0,    5.0,    2.4,   5.6, 244.4,   4.5,  -63.713, -29.975, 999.0, 999.0,  5317.5,  2.0,  1.0,  1.0,  1.0,  1.0, 99.0
 942.7,  530.0,  -3.5, -23.1,  20.4,    5.5,    2.2,   6.0, 248.3,   4.5,  -63.712, -29.975, 999.0, 999.0,  5393.0,  1.0,  1.0,  1.0,  1.0,  1.0, 99.0
 958.7,  525.0,  -4.2, -22.2,  23.2,    5.9,    2.5,   6.4, 247.2,   4.5,  -63.711, -29.974, 999.0, 999.0,  5467.0,  1.0,  1.0,  1.0,  1.0,  1.0, 99.0
 972.6,  520.0,  -4.7, -22.0,  24.6,    5.6,    1.9,   5.9, 251.7,   5.5,  -63.710, -29.974, 999.0, 999.0,  5542.1,  1.0,  1.0,  1.0,  1.0,  1.0, 99.0
 986.2,  515.0,  -5.4, -21.9,  26.0,    6.1,    2.3,   6.5, 249.2,   6.5,  -63.709, -29.974, 999.0, 999.0,  5618.0,  1.0,  1.0,  1.0,  1.0,  1.0, 99.0
1000.0,  510.0,  -6.1, -22.1,  26.9,    7.0,    2.8,   7.5, 248.2,   6.0,  -63.708, -29.973, 999.0, 999.0,  5694.0,  1.0,  1.0,  1.0,  1.0,  1.0, 99.0
1011.5,  505.0,  -6.9, -22.2,  28.4,    7.3,    2.1,   7.6, 254.0,   5.3,  -63.708, -29.973, 999.0, 999.0,  5772.0,  1.0,  1.0,  1.0,  1.0,  1.0, 99.0
1026.6,  500.0,  -7.6, -22.2,  30.0,    7.1,    2.9,   7.7, 247.9,   5.5,  -63.706, -29.973, 999.0, 999.0,  5849.1,  1.0,  1.0,  1.0,  1.0,  1.0, 99.0
1042.6,  495.0,  -8.4, -22.5,  31.3,    7.0,    4.4,   8.3, 237.9,   5.0,  -63.705, -29.972, 999.0, 999.0,  5927.2,  1.0,  1.0,  1.0,  1.0,  1.0, 99.0
1058.7,  490.0,  -9.1, -22.8,  31.8,    6.4,    4.5,   7.8, 235.2,   4.8,  -63.704, -29.972, 999.0, 999.0,  6005.9,  1.0,  1.0,  1.0,  1.0,  1.0, 99.0
1077.3,  485.0, -10.0, -22.8,  34.4,    5.5,    2.9,   6.2, 242.0,   5.2,  -63.703, -29.971, 999.0, 999.0,  6085.1,  1.0,  1.0,  1.0,  1.0,  1.0, 99.0
1092.7,  480.0, -10.8, -23.1,  35.5,    5.9,    3.1,   6.7, 241.9,   5.0,  -63.702, -29.971, 999.0, 999.0,  6165.3,  1.0,  1.0,  1.0,  1.0,  1.0, 99.0
1107.3,  475.0, -11.4, -23.8,  35.2,    6.1,    4.1,   7.4, 236.5,   5.0,  -63.701, -29.970, 999.0, 999.0,  6244.7,  1.0,  1.0,  1.0,  1.0,  1.0, 99.0
1121.1,  470.0, -12.1, -24.5,  34.9,    7.2,    4.3,   8.4, 238.7,   5.7,  -63.700, -29.970, 999.0, 999.0,  6325.8,  1.0,  1.0,  1.0,  1.0,  1.0, 99.0
1135.0,  465.0, -12.8, -25.4,  34.0,    9.8,    4.3,  10.7, 246.2,   5.0,  -63.699, -29.969, 999.0, 999.0,  6407.0,  1.0,  1.0,  1.0,  1.0,  1.0, 99.0
1150.7,  460.0, -13.2, -29.9,  23.3,   11.4,    5.2,  12.6, 245.5,   5.2,  -63.697, -29.969, 999.0, 999.0,  6491.1,  1.0,  1.0,  1.0,  1.0,  1.0, 99.0
1167.3,  455.0, -13.7, -34.7,  15.3,   11.1,    5.9,  12.5, 241.9,   5.0,  -63.695, -29.968, 999.0, 999.0,  6572.7,  1.0,  1.0,  1.0,  1.0,  1.0, 99.0
1185.1,  450.0, -14.5, -35.6,  14.8,   11.6,    5.4,  12.8, 245.0,   5.2,  -63.693, -29.967, 999.0, 999.0,  6657.9,  1.0,  1.0,  1.0,  1.0,  1.0, 99.0
1202.0,  445.0, -15.3, -35.9,  15.4,   12.5,    5.6,  13.7, 245.9,   5.0,  -63.691, -29.966, 999.0, 999.0,  6742.0,  2.0,  2.0,  2.0,  1.0,  1.0, 99.0
1222.0,  440.0, -16.2, -35.7,  16.9,   12.1,    5.4,  13.3, 245.9,   4.0,  -63.688, -29.965, 999.0, 999.0,  6827.0,  2.0,  2.0,  2.0,  1.0,  1.0, 99.0
1238.7,  435.0, -16.8, -34.9,  19.3,   12.1,    4.3,  12.9, 250.4,   5.0,  -63.687, -29.964, 999.0, 999.0,  6912.5,  1.0,  1.0,  1.0,  1.0,  1.0, 99.0
1255.3,  430.0, -17.6, -34.4,  21.6,   12.5,    3.4,  13.0, 254.8,   5.0,  -63.684, -29.964, 999.0, 999.0,  6999.7,  2.0,  2.0,  2.0,  1.0,  1.0, 99.0
1275.0,  425.0, -18.4, -35.5,  20.6,   12.3,    2.3,  12.5, 259.4,   6.0,  -63.682, -29.963, 999.0, 999.0,  7087.0,  1.0,  1.0,  1.0,  1.0,  1.0, 99.0
1291.7,  420.0, -19.1, -36.9,  19.2,   13.2,    2.3,  13.4, 260.1,   5.5,  -63.680, -29.963, 999.0, 999.0,  7174.2,  1.0,  1.0,  1.0,  1.0,  1.0, 99.0
1310.3,  415.0, -19.8, -38.0,  18.1,   14.0,    1.7,  14.1, 263.1,   5.5,  -63.677, -29.962, 999.0, 999.0,  7263.8,  1.0,  1.0,  1.0,  1.0,  1.0, 99.0
1328.3,  410.0, -20.5, -38.5,  18.4,   13.5,    1.4,  13.6, 264.1,   5.3,  -63.674, -29.962, 999.0, 999.0,  7353.8,  1.0,  1.0,  1.0,  1.0,  1.0, 99.0
1345.0,  405.0, -21.5, -39.0,  19.1,   13.4,    1.2,  13.4, 264.9,   5.5,  -63.672, -29.962, 999.0, 999.0,  7444.5,  1.0,  1.0,  1.0,  1.0,  1.0, 99.0
1361.0,  400.0, -22.4, -39.5,  19.5,   13.5,    1.4,  13.5, 264.1,   5.5,  -63.670, -29.962, 999.0, 999.0,  7535.5,  1.0,  1.0,  1.0,  1.0,  1.0, 99.0
1380.4,  395.0, -23.1, -39.4,  21.1,   13.8,    1.2,  13.9, 265.0,   4.3,  -63.667, -29.962, 999.0, 999.0,  7628.7,  1.0,  1.0,  1.0,  1.0,  1.0, 99.0
1400.1,  390.0, -24.1, -39.8,  22.0,   14.4,    0.7,  14.4, 267.0,   5.0,  -63.664, -29.962, 999.0, 999.0,  7719.7,  1.0,  1.0,  1.0,  1.0,  1.0, 99.0
1419.6,  385.0, -25.0, -40.1,  23.2,   14.9,    0.3,  14.9, 268.8,   4.5,  -63.661, -29.962, 999.0, 999.0,  7814.2,  1.0,  1.0,  1.0,  1.0,  1.0, 99.0
1440.8,  380.0, -25.8, -41.2,  22.3,   15.3,    1.7,  15.4, 263.6,   4.5,  -63.658, -29.961, 999.0, 999.0,  7909.6,  1.0,  1.0,  1.0,  1.0,  1.0, 99.0
1460.6,  375.0, -26.5, -42.4,  20.8,   16.2,    3.8,  16.7, 256.8,   3.5,  -63.655, -29.961, 999.0, 999.0,  8004.1,  1.0,  1.0,  1.0,  1.0,  1.0, 99.0
1482.0,  370.0, -26.8, -44.7,  16.8,   17.3,    4.3,  17.8, 256.0,   3.5,  -63.651, -29.960, 999.0, 999.0,  8102.0,  2.0,  1.0,  1.0,  1.0,  1.0, 99.0
1503.1,  365.0, -27.5, -45.6,  16.2,   18.0,    5.5,  18.8, 253.0,   5.5,  -63.647, -29.959, 999.0, 999.0,  8199.8,  1.0,  1.0,  1.0,  1.0,  1.0, 99.0
1522.0,  360.0, -27.9, -46.8,  14.7,   19.1,    5.8,  20.0, 253.1,   5.5,  -63.644, -29.958, 999.0, 999.0,  8299.0,  1.0,  1.0,  1.0,  1.0,  1.0, 99.0
1542.3,  355.0, -28.6, -47.6,  14.3,   20.5,    7.5,  21.9, 249.9,   5.5,  -63.640, -29.957, 999.0, 999.0,  8399.8,  1.0,  1.0,  1.0,  1.0,  1.0, 99.0
1562.8,  350.0, -28.7, -49.6,  11.6,   21.8,    7.5,  23.0, 251.0,   5.5,  -63.635, -29.955, 999.0, 999.0,  8500.4,  1.0,  1.0,  1.0,  1.0,  1.0, 99.0
1583.4,  345.0, -29.2, -51.4,   9.9,   21.3,    6.1,  22.2, 254.0,   4.3,  -63.630, -29.954, 999.0, 999.0,  8604.0,  1.0,  1.0,  1.0,  1.0,  1.0, 99.0
1604.0,  340.0, -29.9, -50.8,  11.3,   21.4,    5.7,  22.1, 255.1,   6.5,  -63.626, -29.953, 999.0, 999.0,  8707.0,  1.0,  1.0,  1.0,  1.0,  1.0, 99.0
1624.7,  335.0, -30.2, -51.4,  10.8,   21.3,    6.6,  22.3, 252.7,   4.0,  -63.621, -29.952, 999.0, 999.0,  8812.7,  1.0,  1.0,  1.0,  1.0,  1.0, 99.0
1647.3,  330.0, -30.9, -52.4,  10.2,   22.8,    8.3,  24.3, 250.0,   3.0,  -63.616, -29.950, 999.0, 999.0,  8919.0,  1.0,  1.0,  1.0,  1.0,  1.0, 99.0
1669.6,  325.0, -31.6, -51.6,  12.1,   24.1,    8.8,  25.7, 249.9,   5.0,  -63.610, -29.949, 999.0, 999.0,  9028.0,  1.0,  1.0,  1.0,  1.0,  1.0, 99.0
1692.0,  320.0, -32.5, -50.9,  14.3,   24.1,    8.8,  25.7, 249.9,   5.5,  -63.605, -29.947, 999.0, 999.0,  9138.0,  2.0,  2.0,  2.0,  1.0,  1.0, 99.0
